"Time (s)","Acceleration x (m/s^2)","Acceleration y (m/s^2)","Acceleration z (m/s^2)","Absolute acceleration (m/s^2)"
3.212036800E-2,3.568050146E0,6.346950531E0,1.480905056E1,1.650220414E1
3.408261300E-2,3.453000069E0,6.883050442E0,1.404300022E1,1.601578746E1
3.604736800E-2,3.415050268E0,7.573050499E0,1.262505054E1,1.511309245E1
3.801051700E-2,3.492000103E0,8.302050591E0,1.066995049E1,1.396302088E1
3.997413700E-2,3.607050180E0,9.030000687E0,7.756950378E0,1.243872994E1
4.193769200E-2,4.027950287E0,9.910950661E0,4.384050369E0,1.156162723E1
4.390127600E-2,4.335000038E0,1.079295063E1,8.580000401E-1,1.166259717E1
4.586570700E-2,4.488000393E0,1.163595009E1,-2.629050016E0,1.274556338E1
4.782989000E-2,4.450050354E0,1.244100094E1,-5.656950474E0,1.437297955E1
4.979349900E-2,4.143000126E0,1.347600079E1,-6.921000481E0,1.570564532E1
5.175727600E-2,3.262050152E0,1.504695034E1,-8.224950790E0,1.745570111E1
5.371986800E-2,1.690050125E0,1.723200035E1,-9.489000320E0,1.974434685E1
5.568281000E-2,-4.549500346E-1,1.976205063E1,-9.336000443E0,2.186107337E1
5.764640500E-2,-2.830950022E0,2.229105186E1,-9.604050636E0,2.443651080E1
5.960980800E-2,-4.708950043E0,2.535705185E1,-8.683950424E0,2.721332916E1
6.157323500E-2,-5.974050522E0,2.842395210E1,-6.499950409E0,2.976339510E1
6.353665400E-2,-7.162050247E0,3.152805138E1,-4.468050003E0,3.263857316E1
6.550020900E-2,-8.580000877E0,3.505395126E1,-4.237950325E0,3.633670510E1
6.746372700E-2,-1.015200043E1,3.877200317E1,-4.276950359E0,4.030662039E1
6.942762900E-2,-1.095705032E1,4.183800125E1,-4.468050003E0,4.347917630E1
7.139141900E-2,-1.114800072E1,4.501905060E1,-4.468050003E0,4.659352216E1
7.335509600E-2,-1.099500084E1,4.785600281E1,-5.119950294E0,4.936902814E1
7.531880600E-2,-1.068795013E1,4.977195358E1,-5.656950474E0,5.121992513E1
7.728208400E-2,-1.011405087E1,5.149695206E1,-5.925000191E0,5.281416215E1
7.924549300E-2,-9.001950264E0,5.249295425E1,-5.617950439E0,5.355470775E1
8.120873800E-2,-7.966950417E0,5.264700317E1,-6.117000103E0,5.359661307E1
8.317203200E-2,-6.970950127E0,5.161200333E1,-6.460950375E0,5.247987150E1
8.513556600E-2,-5.706000328E0,5.000205231E1,-6.154950142E0,5.070154915E1
8.709903000E-2,-4.363950253E0,4.754895401E1,-5.695050240E0,4.808721958E1
8.906238200E-2,-2.755050182E0,4.444500351E1,-5.272950172E0,4.484141659E1
9.102578100E-2,-1.336950064E0,4.114800262E1,-5.197050095E0,4.149644425E1
9.298992800E-2,-2.629500031E-1,3.796695328E1,-5.427000046E0,3.835376140E1
9.495385600E-2,5.790000558E-1,3.520800018E1,-5.695050240E0,3.567032541E1
9.691732900E-2,1.230000019E0,3.275505066E1,-6.154950142E0,3.335100681E1
9.888093500E-2,1.614000082E0,3.060795212E1,-6.960000515E0,3.143077053E1
1.008442570E-1,1.882050037E0,2.872995186E1,-7.420050144E0,2.973229541E1
1.028076800E-1,2.265000105E0,2.708205223E1,-7.995000362E0,2.832821578E1
1.047708770E-1,2.572050095E0,2.562600136E1,-8.455050468E0,2.710710729E1
1.067341410E-1,2.764050245E0,2.428395081E1,-8.799000740E0,2.597638648E1
1.086976800E-1,2.992950201E0,2.321100044E1,-9.259050369E0,2.516820030E1
1.106611390E-1,3.262050152E0,2.209995079E1,-9.718950272E0,2.436199480E1
1.126243580E-1,3.415050268E0,2.106495094E1,-1.006395054E1,2.359402100E1
1.145876610E-1,3.300000191E0,2.018295097E1,-1.037100029E1,2.293031091E1
1.165508790E-1,3.070050240E0,1.941705132E1,-1.075395012E1,2.240746602E1
1.185141220E-1,2.802000046E0,1.876500130E1,-1.083105087E1,2.184692521E1
1.204774850E-1,2.341950178E0,1.819005013E1,-1.086900043E1,2.131895459E1
1.224408130E-1,1.804950118E0,1.776900101E1,-1.056300068E1,2.075023434E1
1.244043880E-1,1.269000053E0,1.734705162E1,-1.017900085E1,2.015298041E1
1.263678900E-1,8.089500666E-1,1.700205040E1,-9.718950272E0,1.960056408E1
1.283305790E-1,3.870000243E-1,1.669500160E1,-9.106050491E0,1.902085705E1
1.302935070E-1,8.100000024E-2,1.642695045E1,-8.683950424E0,1.858123401E1
1.322574640E-1,-3.299999982E-2,1.608195114E1,-8.263050079E0,1.808060392E1
1.342211200E-1,-1.099500060E-1,1.577505112E1,-7.918050289E0,1.765105796E1
1.361846340E-1,-2.250000089E-1,1.539195061E1,-7.650000572E0,1.718968520E1
1.381481940E-1,-1.870500147E-1,1.508595085E1,-7.342950344E0,1.677914839E1
1.401119080E-1,-7.200000435E-2,1.470195103E1,-6.960000515E0,1.626635039E1
1.420755770E-1,-1.099500060E-1,1.431900024E1,-6.460950375E0,1.570954286E1
1.440389590E-1,4.200000316E-2,1.378200054E1,-6.307950497E0,1.515702947E1
1.460024250E-1,1.189500093E-1,1.343700027E1,-6.232050419E0,1.481234546E1
1.479663400E-1,1.960500032E-1,1.297800064E1,-5.809950352E0,1.422049434E1
1.499301200E-1,6.169500351E-1,1.247895050E1,-5.311950207E0,1.357651089E1
1.518934380E-1,1.039050102E0,1.186605072E1,-4.966950417E0,1.290555622E1
1.538568910E-1,1.039050102E0,1.132905006E1,-4.813050270E0,1.235283180E1
1.558195430E-1,8.470500112E-1,1.079295063E1,-4.429950237E0,1.169742434E1
1.577824290E-1,2.340000123E-1,1.033305073E1,-4.084949970E0,1.111366319E1
1.597460330E-1,8.100000024E-2,9.757950783E0,-3.778950214E0,1.046444596E1
1.617094270E-1,-3.299999982E-2,9.106050491E0,-3.280050039E0,9.678841501E0
1.636739370E-1,4.639500082E-1,8.493000031E0,-3.088950157E0,9.049194008E0
1.656381200E-1,1.651950121E0,7.765050411E0,-3.049950123E0,8.504536604E0
1.676015490E-1,2.494950056E0,7.189950466E0,-3.049950123E0,8.198924273E0
1.695651990E-1,1.459950089E0,6.844950199E0,-3.127050161E0,7.665718505E0
1.715286490E-1,1.230000019E0,6.424050331E0,-2.782050133E0,7.107821442E0
1.734921750E-1,8.089500666E-1,6.040050507E0,-2.514000177E0,6.592177730E0
1.754546790E-1,5.020500422E-1,5.656950474E0,-2.437050104E0,6.179996450E0
1.774174820E-1,-1.480500102E-1,5.235000134E0,-2.245050192E0,5.698016810E0
1.793809650E-1,-5.320500135E-1,4.852050304E0,-2.092050076E0,5.310568980E0
1.813442490E-1,-1.183050036E0,4.468950272E0,-1.900950074E0,4.998473277E0
1.833076330E-1,-1.183050036E0,4.085999966E0,-1.747050047E0,4.598607069E0
1.852710010E-1,-1.106999993E0,3.778950214E0,-1.555950046E0,4.234016326E0
1.872342090E-1,-1.452000022E0,3.511050224E0,-1.171950102E0,3.976084102E0
1.891974640E-1,-1.950000048E0,3.241950035E0,-1.018950105E0,3.918035162E0
1.911610050E-1,-2.218050003E0,3.051000118E0,-6.739500165E-1,3.831782374E0
1.931244620E-1,-2.371050119E0,2.706000090E0,-5.970000029E-1,3.647015788E0
1.950878110E-1,-2.601000071E0,2.398950100E0,-4.819500148E-1,3.571055693E0
1.970512090E-1,-2.755050182E0,2.053950071E0,-2.910000086E-1,3.448723446E0
1.990145920E-1,-2.908050060E0,1.594050050E0,-2.140500098E-1,3.323186441E0
2.009779790E-1,-3.175950050E0,1.288050056E0,-2.140500098E-1,3.433882507E0
2.029412280E-1,-3.483000278E0,9.810000658E-1,-3.670500219E-1,3.637083693E0
2.049045170E-1,-3.751050234E0,5.590500236E-1,-3.670500219E-1,3.810202161E0
2.068687530E-1,-3.981000185E0,9.900000691E-2,-3.289500177E-1,3.995794238E0
2.088327260E-1,-4.057950020E0,-1.680000126E-1,-1.759500057E-1,4.065235636E0
2.107961910E-1,-4.134000301E0,-5.130000114E-1,-9.900000691E-2,4.166884748E0
2.127598050E-1,-4.249050140E0,-1.011000037E0,1.300500035E-1,4.369606524E0
2.147226090E-1,-4.134000301E0,-1.471050024E0,3.220500052E-1,4.399734409E0
2.166856510E-1,-3.981000185E0,-1.854000092E0,3.979500234E-1,4.409540003E0
2.186492680E-1,-3.790050268E0,-2.238000154E0,5.509500504E-1,4.435839457E0
2.206127200E-1,-3.483000278E0,-2.659050226E0,6.280500293E-1,4.426769238E0
2.225759590E-1,-3.100050211E0,-3.081000090E0,7.810500264E-1,4.439922523E0
2.245392600E-1,-2.755050182E0,-3.387000084E0,9.349500537E-1,4.464997500E0
2.265026130E-1,-2.332950115E0,-3.732000113E0,1.050000072E0,4.524707861E0
2.284659510E-1,-1.834950089E0,-3.924000263E0,1.011000037E0,4.448251451E0
2.304295650E-1,-1.183050036E0,-4.153950214E0,9.349500537E-1,4.419167498E0
2.323931010E-1,-5.700000525E-1,-4.269000053E0,7.810500264E-1,4.377133841E0
2.343565960E-1,4.050000105E-3,-4.269000053E0,6.660000086E-1,4.320640447E0
2.363201030E-1,4.260000288E-1,-4.231050014E0,6.660000086E-1,4.304278832E0
2.382844110E-1,8.470500112E-1,-4.153950214E0,7.429500222E-1,4.304041222E0
2.402484850E-1,1.153950095E0,-4.077000141E0,8.200500607E-1,4.315786496E0
2.422120530E-1,1.384050012E0,-4.039050102E0,9.730500579E-1,4.379080563E0
2.441757800E-1,1.614000082E0,-3.924000263E0,1.203000069E0,4.410213543E0
2.461393310E-1,1.882050037E0,-3.886050224E0,1.395000100E0,4.537568068E0
2.481029340E-1,2.111999989E0,-3.808950186E0,1.548000097E0,4.622223466E0
2.500662810E-1,2.265000105E0,-3.732000113E0,1.893000126E0,4.758308501E0
2.520297030E-1,2.419050217E0,-3.694050074E0,2.467950106E0,5.058516346E0
2.539930630E-1,2.610000134E0,-3.579000235E0,3.043050051E0,5.374150815E0
2.559564540E-1,2.802000046E0,-3.541050196E0,3.541050196E0,5.738403718E0
2.579198380E-1,3.031950235E0,-3.502050161E0,3.963000298E0,6.096101125E0
2.598832240E-1,3.184950113E0,-3.426000118E0,4.384050369E0,6.411028129E0
2.618469670E-1,3.300000191E0,-3.310950041E0,4.690950394E0,6.622492509E0
2.638106060E-1,3.300000191E0,-3.196050167E0,4.768050194E0,6.621105692E0
2.657741410E-1,3.415050268E0,-3.118950129E0,4.882050037E0,6.724940952E0
2.677376980E-1,3.492000103E0,-2.889000177E0,4.806000233E0,6.605908339E0
2.697012330E-1,3.798000097E0,-2.773950100E0,5.266050339E0,7.060516275E0
2.716647750E-1,3.760050297E0,-2.581950188E0,5.419050217E0,7.083117270E0
2.736280870E-1,3.837000132E0,-2.351999998E0,5.227050304E0,6.897574131E0
2.755914670E-1,3.913050175E0,-2.199000120E0,5.188950062E0,6.860959550E0
2.775548970E-1,3.952050209E0,-2.008050203E0,5.112000465E0,6.766351693E0
2.795183120E-1,3.913050175E0,-1.777950048E0,4.996950150E0,6.591098455E0
2.814818270E-1,3.837000132E0,-1.548000097E0,4.806000233E0,6.341649040E0
2.834453120E-1,3.721950293E0,-1.356000066E0,4.537950039E0,6.023673357E0
2.854090400E-1,3.645000219E0,-1.164000034E0,4.345950127E0,5.790354495E0
2.873726960E-1,3.568050146E0,-9.730500579E-1,4.078050137E0,5.505297556E0
2.893360550E-1,3.492000103E0,-7.429500222E-1,3.771000147E0,5.192926108E0
2.912994870E-1,3.337950230E0,-5.509500504E-1,3.426000118E0,4.814865990E0
2.932630430E-1,3.262050152E0,-4.360500276E-1,3.118950129E0,4.534199017E0
2.952265620E-1,3.223050117E0,-2.830500007E-1,2.773950100E0,4.261803435E0
2.971899700E-1,3.147000074E0,-1.680000126E-1,2.506050110E0,4.026427775E0
2.991534110E-1,3.070050240E0,-1.290000081E-1,2.085000038E0,3.713364328E0
3.011162000E-1,3.031950235E0,-5.295000225E-2,1.701000094E0,3.476913467E0
3.030791800E-1,2.917050123E0,9.900000691E-2,1.432950020E0,3.251511676E0
3.050424970E-1,2.917050123E0,1.759500057E-1,1.203000069E0,3.160276727E0
3.070057160E-1,2.839950085E0,3.289500177E-1,7.810500264E-1,2.963707769E0
3.089700310E-1,2.764050245E0,4.830000103E-1,4.360500276E-1,2.839613071E0
3.109340240E-1,2.725050211E0,7.129500508E-1,2.449500114E-1,2.827401092E0
3.128971200E-1,2.725050211E0,8.280000687E-1,1.500000060E-2,2.848105996E0
3.148604820E-1,2.725050211E0,9.810000658E-1,-1.369500011E-1,2.899485314E0
3.168238260E-1,2.725050211E0,1.173000097E0,-2.910000086E-1,2.981024805E0
3.187871750E-1,2.649000168E0,1.326000094E0,-3.289500177E-1,2.980551334E0
3.207507450E-1,2.572050095E0,1.479000092E0,-5.209500194E-1,3.012353213E0
3.227142500E-1,2.494950056E0,1.708950043E0,-5.970000029E-1,3.082481960E0
3.246777660E-1,2.457000017E0,1.900950074E0,-7.510500550E-1,3.196018844E0
3.266412990E-1,2.304000139E0,2.053950071E0,-8.659500480E-1,3.205775573E0
3.286048390E-1,2.111999989E0,2.245950222E0,-1.018950105E0,3.247013346E0
3.305683760E-1,1.920000076E0,2.361000061E0,-1.171950102E0,3.261010368E0
3.325319590E-1,1.690050125E0,2.398950100E0,-1.363950014E0,3.235983722E0
3.344955290E-1,1.498950124E0,2.437050104E0,-1.479000092E0,3.220792752E0
3.364593540E-1,1.306950092E0,2.437050104E0,-1.594050050E0,3.191915932E0
3.384231210E-1,1.000050068E0,2.514000177E0,-1.786050081E0,3.241954954E0
3.403859000E-1,6.550500393E-1,2.551950216E0,-1.861950040E0,3.226204955E0
3.423489690E-1,1.960500032E-1,2.667000055E0,-1.900950074E0,3.280996203E0
3.443126320E-1,-2.250000089E-1,2.706000090E0,-1.939050078E0,3.336611559E0
3.462761210E-1,-6.469500065E-1,2.782050133E0,-2.053950071E0,3.518104340E0
3.482400420E-1,-9.529500604E-1,2.743950129E0,-2.053950071E0,3.557539462E0
3.502038270E-1,-1.183050036E0,2.782050133E0,-1.900950074E0,3.571137286E0
3.521674600E-1,-1.336950064E0,2.782050133E0,-1.516950130E0,3.439240630E0
3.541311370E-1,-1.375050068E0,2.821050167E0,-9.420000315E-1,3.276652376E0
3.560941560E-1,-1.489950061E0,2.782050133E0,-2.140500098E-1,3.163158474E0
3.580573680E-1,-1.528050065E0,2.859000206E0,5.899500251E-1,3.294974994E0
3.600210960E-1,-1.605000019E0,2.935950041E0,1.395000100E0,3.625169373E0
3.619846730E-1,-1.681950092E0,2.974050045E0,2.085000038E0,4.002643494E0
3.639484310E-1,-1.605000019E0,3.051000118E0,3.234000206E0,4.726878898E0
3.659121350E-1,-1.528050065E0,3.204000235E0,4.537950039E0,5.761383954E0
3.678754660E-1,-1.413000107E0,3.319050074E0,6.109050274E0,7.094586524E0
3.698389060E-1,-1.068000078E0,3.511050224E0,7.872000217E0,8.685417967E0
3.718019210E-1,-7.620000243E-1,3.778950214E0,9.520050049E0,1.027095233E1
3.737650600E-1,-3.780000210E-1,4.047000408E0,1.113000011E1,1.184896615E1
3.757295220E-1,8.100000024E-2,4.354050159E0,1.235595036E1,1.310090924E1
3.776935960E-1,6.550500393E-1,4.660050392E0,1.327605057E1,1.408540659E1
3.796572690E-1,1.230000019E0,4.890000343E0,1.381305027E1,1.470460340E1
3.816210600E-1,1.767000079E0,5.350050449E0,1.381305027E1,1.491796524E1
3.835847410E-1,2.341950178E0,5.925000191E0,1.297005081E1,1.445034864E1
3.855484500E-1,2.802000046E0,6.654000282E0,1.147500038E1,1.355738020E1
3.875119590E-1,3.108000040E0,7.650000572E0,9.289950371E0,1.242921361E1
3.894755270E-1,3.415050268E0,8.953050613E0,6.952050209E0,1.183852549E1
3.914392390E-1,3.568050146E0,1.029495049E1,4.423050404E0,1.175926708E1
3.934029090E-1,3.568050146E0,1.171305084E1,1.740000129E0,1.236746305E1
3.953672760E-1,3.300000191E0,1.332300091E1,-1.249050021E0,1.378232493E1
3.973314430E-1,3.031950235E0,1.508595085E1,-3.778950214E0,1.584484459E1
3.992946940E-1,2.764050245E0,1.719405174E1,-5.427000046E0,1.824082560E1
4.012582140E-1,2.649000168E0,1.941705132E1,-6.423000336E0,2.062265785E1
4.032216200E-1,2.649000168E0,2.194605064E1,-6.270000458E0,2.297736378E1
4.051850600E-1,3.108000040E0,2.447595024E1,-5.848050117E0,2.535609384E1
4.071484450E-1,3.760050297E0,2.723505211E1,-5.235000134E0,2.798734121E1
4.091118390E-1,4.642050266E0,3.030195236E1,-4.429950237E0,3.097388266E1
4.110753560E-1,5.752950191E0,3.325305176E1,-3.970050097E0,3.397974669E1
4.130388370E-1,6.865050316E0,3.593595123E1,-3.702000141E0,3.677262993E1
4.150022510E-1,7.822950363E0,3.819705200E1,-3.204000235E0,3.912133627E1
4.169656850E-1,7.899000168E0,3.999900055E1,-2.896950245E0,4.087427760E1
4.189294350E-1,7.095000267E0,4.137795258E1,-3.049950123E0,4.209247182E1
4.208930820E-1,5.560950279E0,4.206795120E1,-3.394950151E0,4.256950050E1
4.228566030E-1,3.682950258E0,4.122495270E1,-4.392000198E0,4.162151503E1
4.248201610E-1,1.996950150E0,3.892500305E1,-5.350050449E0,3.934166636E1
4.267822540E-1,6.550500393E-1,3.570600128E1,-6.078000069E0,3.622553937E1
4.287447760E-1,-5.320500135E-1,3.233295059E1,-6.117000103E0,3.291079552E1
4.307081280E-1,-1.758000135E0,2.903700066E1,-6.346950531E0,2.977451515E1
4.326712360E-1,-3.138000250E0,2.608605194E1,-6.652950287E0,2.710333741E1
4.346346680E-1,-4.555950165E0,2.370900154E1,-6.499950409E0,2.500245571E1
4.365980050E-1,-5.821050167E0,2.187000084E1,-6.499950409E0,2.354635677E1
4.385613530E-1,-6.894000530E0,2.052795029E1,-6.346950531E0,2.256563244E1
4.405246980E-1,-7.584000587E0,1.972305107E1,-6.232050419E0,2.203075716E1
4.424881390E-1,-7.737000465E0,1.926300049E1,-6.117000103E0,2.164121194E1
4.444515490E-1,-7.201050282E0,1.907205009E1,-5.887050152E0,2.121922665E1
4.464151100E-1,-6.511050224E0,1.899495125E1,-5.772000313E0,2.089301164E1
4.483786260E-1,-6.280950069E0,1.899495125E1,-5.542050362E0,2.075988509E1
4.503423480E-1,-6.549000263E0,1.911000061E1,-5.427000046E0,2.091730999E1
4.523060100E-1,-7.009050369E0,1.922504997E1,-5.427000046E0,2.117030144E1
4.542693330E-1,-7.699050426E0,1.930200005E1,-5.427000046E0,2.147777718E1
4.562327660E-1,-8.389050484E0,1.933995056E1,-5.427000046E0,2.176837581E1
4.581962770E-1,-8.887050629E0,1.933995056E1,-5.464950085E0,2.197450878E1
4.601597650E-1,-9.424050331E0,1.914795113E1,-5.695050240E0,2.208824018E1
4.621231780E-1,-9.691950798E0,1.907205009E1,-5.925000191E0,2.219870790E1
4.640866130E-1,-9.807000160E0,1.888005066E1,-6.346950531E0,2.220174196E1
4.660499590E-1,-9.883950233E0,1.868805122E1,-6.730050087E0,2.218624134E1
4.680133200E-1,-9.844950676E0,1.845795059E1,-7.113000393E0,2.209555993E1
4.699769330E-1,-9.730050087E0,1.822800064E1,-7.726050377E0,2.205959511E1
4.719404720E-1,-9.462000847E0,1.807500076E1,-8.301000595E0,2.202593298E1
4.739039660E-1,-9.079050064E0,1.780695152E1,-8.569950104E0,2.174766004E1
4.758674740E-1,-8.542050362E0,1.753905106E1,-8.455050468E0,2.126200402E1
4.778306870E-1,-7.966950417E0,1.711695099E1,-8.110050201E0,2.054836306E1
4.797939970E-1,-7.468950272E0,1.677195168E1,-7.495950222E0,1.983110816E1
4.817573940E-1,-6.931950092E0,1.631204987E1,-6.499950409E0,1.887814234E1
4.837207650E-1,-6.396000385E0,1.596705055E1,-5.772000313E0,1.814308441E1
4.856841520E-1,-5.821050167E0,1.554600048E1,-4.966950417E0,1.732724307E1
4.876475340E-1,-5.169000149E0,1.516200066E1,-4.009050369E0,1.651294375E1
4.896112350E-1,-4.594050407E0,1.462605095E1,-3.241950035E0,1.566961727E1
4.915748420E-1,-4.057950020E0,1.420395088E1,-2.704950094E0,1.501785384E1
4.935381890E-1,-3.445050240E0,1.393605042E1,-2.359950066E0,1.454823827E1
4.955016130E-1,-3.214950085E0,1.382100105E1,-2.206950188E0,1.436059202E1
4.974648550E-1,-3.214950085E0,1.382100105E1,-2.092050076E0,1.434338341E1
4.994281510E-1,-3.291000128E0,1.366695023E1,-1.861950040E0,1.418037617E1
5.013915500E-1,-3.367950201E0,1.343700027E1,-1.441050053E0,1.392740788E1
5.033549180E-1,-3.175950050E0,1.332300091E1,-1.210950017E0,1.374974225E1
5.053184860E-1,-2.985000134E0,1.328400040E1,-1.171950102E0,1.366559034E1
5.072819950E-1,-2.563050032E0,1.328400040E1,-1.057050109E0,1.357023386E1
5.092455390E-1,-2.065050125E0,1.336095047E1,-1.249050021E0,1.357717038E1
5.112090720E-1,-1.681950092E0,1.362900066E1,-1.363950014E0,1.379996286E1
5.131724480E-1,-1.336950064E0,1.385895061E1,-1.402050018E0,1.399370186E1
5.151358590E-1,-1.030050039E0,1.405095100E1,-1.249050021E0,1.414391576E1
5.170995530E-1,-6.850500107E-1,1.416600037E1,-9.420000315E-1,1.421380399E1
5.190631640E-1,-3.780000210E-1,1.428105068E1,-4.440000355E-1,1.429295031E1
5.210258350E-1,-7.200000435E-2,1.443405056E1,-2.205000073E-2,1.443424698E1
5.229887820E-1,8.100000024E-2,1.462605095E1,5.509500504E-1,1.463664830E1
5.249523850E-1,1.189500093E-1,1.497105026E1,1.126049995E0,1.501380976E1
5.269157890E-1,-3.299999982E-2,1.535400105E1,1.663050056E0,1.544383931E1
5.288790360E-1,-3.299999982E-2,1.566000080E1,2.161050081E0,1.580844241E1
5.308423290E-1,4.050000105E-3,1.596705055E1,2.773950100E0,1.620621853E1
5.328060890E-1,1.960500032E-1,1.638899994E1,2.851050138E0,1.663629290E1
5.347697120E-1,5.020500422E-1,1.673400116E1,2.773950100E0,1.696978633E1
5.367339280E-1,8.470500112E-1,1.692495155E1,2.545050144E0,1.713618274E1
5.386979900E-1,1.077000022E0,1.711695099E1,2.275950193E0,1.730115284E1
5.406616200E-1,1.153950095E0,1.742400169E1,1.855050087E0,1.756042843E1
5.426253770E-1,1.269000053E0,1.769205093E1,1.585950017E0,1.780826395E1
5.445888330E-1,1.306950092E0,1.769205093E1,1.432950020E0,1.779803727E1
5.465523770E-1,1.459950089E0,1.773000145E1,1.356000066E0,1.784161265E1
5.485159450E-1,1.690050125E0,1.761495018E1,1.356000066E0,1.774771747E1
5.504795150E-1,2.035050154E0,1.730895042E1,1.510050058E0,1.749346864E1
5.524432290E-1,2.188950062E0,1.700205040E1,1.663050056E0,1.722286142E1
5.544069000E-1,2.149950027E0,1.673400116E1,1.816050053E0,1.696900462E1
5.563703720E-1,2.074050188E0,1.638899994E1,2.085000038E0,1.665077260E1
5.583339020E-1,1.920000076E0,1.612005043E1,2.275950193E0,1.639275375E1
5.602974460E-1,1.690050125E0,1.585200119E1,2.391000032E0,1.612014554E1
5.622609820E-1,1.459950089E0,1.573695087E1,2.467950106E0,1.599605748E1
5.642243870E-1,1.345050097E0,1.543095112E1,2.620950222E0,1.570964011E1
5.661878300E-1,1.306950092E0,1.508595085E1,2.545050144E0,1.535484653E1
