"Time (s)","Acceleration x (m/s^2)","Acceleration y (m/s^2)","Acceleration z (m/s^2)","Absolute acceleration (m/s^2)"
3.593376800E-2,9.619500637E-1,-7.105050564E0,1.893000126E0,7.415560728E0
3.789507500E-2,7.699500322E-1,-7.219950199E0,1.510050058E0,7.416249396E0
3.985907600E-2,5.790000558E-1,-7.219950199E0,1.165050030E0,7.336229516E0
4.182176900E-2,3.870000243E-1,-7.219950199E0,6.280500293E-1,7.257540681E0
4.378484500E-2,2.719500065E-1,-7.182000160E0,2.449500114E-1,7.191320019E0
4.574776600E-2,1.189500093E-1,-7.066950321E0,-2.205000073E-2,7.067985721E0
4.771074800E-2,1.570500135E-1,-7.027950287E0,-2.140500098E-1,7.032962914E0
4.967379500E-2,1.960500032E-1,-6.913050175E0,-2.910000086E-1,6.921949099E0
5.163682200E-2,3.109500110E-1,-6.798000336E0,-2.910000086E-1,6.811327292E0
5.360013300E-2,3.870000243E-1,-6.607050419E0,-2.140500098E-1,6.621835219E0
5.556336100E-2,5.790000558E-1,-6.454050541E0,-6.105000153E-2,6.480257445E0
5.752637500E-2,7.699500322E-1,-6.147000313E0,9.195000678E-2,6.195715512E0
5.948947900E-2,1.039050102E0,-5.878950119E0,2.830500007E-1,5.976771446E0
6.145196500E-2,1.230000019E0,-5.572050095E0,6.280500293E-1,5.740652327E0
6.341463300E-2,1.384050012E0,-5.149950027E0,9.349500537E-1,5.414029121E0
6.537764400E-2,1.575000048E0,-4.729050159E0,1.240950108E0,5.136584247E0
6.734055400E-2,1.804950118E0,-4.306950092E0,1.471050024E0,4.896085395E0
6.930364000E-2,2.074050188E0,-3.808950186E0,1.510050058E0,4.592389017E0
7.126668800E-2,2.188950062E0,-3.349050045E0,1.510050058E0,4.276434234E0
7.322990500E-2,2.304000139E0,-2.889000177E0,1.548000097E0,4.006375290E0
7.519307200E-2,2.457000017E0,-2.544000149E0,1.471050024E0,3.830505713E0
7.715599900E-2,2.572050095E0,-2.083950043E0,1.471050024E0,3.622468446E0
7.911899700E-2,2.725050211E0,-1.663050056E0,1.279950023E0,3.439463069E0
8.108224800E-2,2.917050123E0,-1.393950105E0,1.050000072E0,3.399232041E0
8.304543800E-2,3.147000074E0,-1.011000037E0,7.810500264E-1,3.396434850E0
8.500921600E-2,3.453000069E0,-5.890500546E-1,3.979500234E-1,3.525415389E0
8.697282200E-2,3.760050297E0,-2.059500068E-1,1.300500035E-1,3.767931348E0
8.893472800E-2,3.952050209E0,2.295000106E-2,-2.140500098E-1,3.957909166E0
9.089713200E-2,4.182000160E0,5.590500236E-1,-5.590500236E-1,4.256077913E0
9.286047500E-2,4.335000038E0,1.096050024E0,-9.810000658E-1,4.577762785E0
9.482356300E-2,4.372950077E0,1.518000126E0,-1.479000092E0,4.859470962E0
9.678681800E-2,4.564949989E0,1.900950074E0,-1.977000117E0,5.325496132E0
9.875002400E-2,4.756950378E0,2.245950222E0,-2.245050192E0,5.719538414E0
1.007130350E-1,4.948050022E0,2.706000090E0,-2.437050104E0,6.143683644E0
1.026761030E-1,5.215950012E0,3.051000118E0,-2.551950216E0,6.559511122E0
1.046391320E-1,5.485050201E0,3.433950186E0,-2.667000055E0,6.999334174E0
1.066022070E-1,5.752950191E0,3.856050253E0,-2.820000172E0,7.477831265E0
1.085651050E-1,6.021000385E0,4.315950394E0,-2.935050249E0,7.968336928E0
1.105280550E-1,6.289950371E0,4.736999989E0,-3.049950123E0,8.444219343E0
1.124908390E-1,6.595950127E0,5.119950294E0,-2.896950245E0,8.838142894E0
1.144536710E-1,6.865050316E0,5.389050484E0,-2.322000027E0,9.031194001E0
1.164160190E-1,6.940950394E0,5.734050274E0,-1.134000063E0,9.074253746E0
1.183785120E-1,6.903000355E0,6.270000458E0,4.750500321E-1,9.337558148E0
1.203410120E-1,6.979950428E0,6.844950199E0,2.467950106E0,1.008284825E1
1.223035100E-1,6.787950516E0,7.612050533E0,4.729050159E0,1.124204167E1
1.242666410E-1,6.481050491E0,8.340000153E0,6.684000492E0,1.249941921E1
1.262295870E-1,5.983050346E0,9.259950638E0,8.025000572E0,1.363613624E1
1.281926820E-1,5.560950279E0,1.025595093E1,8.715000153E0,1.456227747E1
1.301557360E-1,5.523000240E0,1.113795090E1,8.944950104E0,1.531566565E1
1.321186830E-1,5.560950279E0,1.190400028E1,8.907000542E0,1.587337549E1
1.340816610E-1,5.485050201E0,1.267095089E1,8.332050323E0,1.612643280E1
1.360445740E-1,5.446050167E0,1.332300091E1,7.374000549E0,1.617212725E1
1.380075070E-1,5.140050411E0,1.412700081E1,5.841000080E0,1.612791220E1
1.399705690E-1,4.756950378E0,1.527705097E1,3.963000298E0,1.648399935E1
1.419336200E-1,4.105050087E0,1.657995033E1,2.046000004E0,1.720268308E1
1.438976020E-1,2.992950201E0,1.842000008E1,1.500000060E-2,1.866157493E1
1.458613120E-1,1.651950121E0,2.018295097E1,-2.284050226E0,2.037884527E1
1.478232000E-1,1.570500135E-1,2.229105186E1,-4.123950005E0,2.266986153E1
1.497856220E-1,-1.642950058E0,2.424600029E1,-6.078000069E0,2.505014770E1
1.517487600E-1,-3.904950142E0,2.662200165E1,-8.646000862E0,2.826186367E1
1.537116920E-1,-6.664050102E0,2.961195183E1,-1.071600056E1,3.218866140E1
1.556744790E-1,-9.807000160E0,3.267795181E1,-1.286205101E1,3.646173533E1
1.576373090E-1,-1.241295052E1,3.555300140E1,-1.389705086E1,4.014007065E1
1.596003820E-1,-1.459800053E1,3.835005188E1,-1.336005020E1,4.315459466E1
1.615633840E-1,-1.624604988E1,4.084200287E1,-1.155900097E1,4.544902462E1
1.635261500E-1,-1.751100159E1,4.283505249E1,-1.040895081E1,4.743230076E1
1.654889920E-1,-1.866105080E1,4.490400314E1,-9.183000565E0,4.948668320E1
1.674519280E-1,-1.935105133E1,4.632300186E1,-8.953050613E0,5.099451740E1
1.694148360E-1,-2.000205040E1,4.697400284E1,-9.106050491E0,5.186095948E1
1.713778970E-1,-2.007900047E1,4.678305054E1,-9.451050758E0,5.177974930E1
1.733409130E-1,-1.957995033E1,4.601595306E1,-9.489000320E0,5.090072218E1
1.753038280E-1,-1.866105080E1,4.456005096E1,-9.220950127E0,4.918189586E1
1.772668000E-1,-1.720395088E1,4.249005127E1,-8.761050224E0,4.667050872E1
1.792298480E-1,-1.528800106E1,4.007505035E1,-8.646000862E0,4.375483937E1
1.811928740E-1,-1.348605061E1,3.746895218E1,-8.838000298E0,4.079100621E1
1.831556460E-1,-1.191495037E1,3.501600266E1,-8.953050613E0,3.805579587E1
1.851184920E-1,-1.030500031E1,3.271605301E1,-8.608050346E0,3.536427133E1
1.870813630E-1,-8.925000191E0,3.060795212E1,-8.148000717E0,3.290732862E1
1.890442400E-1,-7.621950150E0,2.865405083E1,-7.687950134E0,3.063092114E1
1.910071710E-1,-6.357000351E0,2.692905045E1,-7.381050587E0,2.863677913E1
1.929700860E-1,-5.208000183E0,2.547195053E1,-7.420050144E0,2.703702413E1
1.949328770E-1,-4.288050175E0,2.424600029E1,-7.726050377E0,2.580596363E1
1.968957040E-1,-3.330000162E0,2.298105049E1,-8.032950401E0,2.457124081E1
1.988587840E-1,-2.026050091E0,2.194605064E1,-8.416049957E0,2.359160687E1
2.008218170E-1,-6.850500107E-1,2.110305023E1,-8.991000175E0,2.294877136E1
2.027855780E-1,3.109500110E-1,2.022105026E1,-9.681000710E0,2.242118057E1
2.047491250E-1,1.306950092E0,1.949295044E1,-1.021800041E1,2.204746624E1
2.067119420E-1,2.149950027E0,1.876500130E1,-1.060095024E1,2.165935606E1
2.086749730E-1,2.878050089E0,1.815195084E1,-1.102200031E1,2.143037523E1
2.106379130E-1,3.492000103E0,1.757700157E1,-1.125195026E1,2.116013785E1
2.126008870E-1,4.027950287E0,1.704000092E1,-1.148205090E1,2.093856508E1
2.145641160E-1,4.335000038E0,1.642695045E1,-1.182705021E1,2.070062905E1
2.165272700E-1,4.527000427E0,1.585200119E1,-1.194195080E1,2.035656807E1
2.184903350E-1,4.680000305E0,1.535400105E1,-1.205700016E1,2.007533322E1
2.204534260E-1,4.756950378E0,1.489395046E1,-1.194195080E1,1.967405719E1
2.224163690E-1,4.717950344E0,1.462605095E1,-1.152105045E1,1.920716078E1
2.243793530E-1,4.603050232E0,1.420395088E1,-1.098405075E1,1.853617175E1
2.263422650E-1,4.450050354E0,1.370595074E1,-1.048605061E1,1.782170842E1
2.283051990E-1,4.564949989E0,1.351395035E1,-9.796050072E0,1.730399432E1
2.302677600E-1,4.335000038E0,1.320795059E1,-9.144000053E0,1.663895793E1
2.322304300E-1,4.105050087E0,1.278600025E1,-8.377950668E0,1.582792772E1
2.341932150E-1,4.066950321E0,1.236405087E1,-7.726050377E0,1.513610561E1
2.361559660E-1,4.105050087E0,1.175100040E1,-7.342950344E0,1.445186377E1
2.381189190E-1,3.913050175E0,1.090800095E1,-6.576000214E0,1.332442213E1
2.400818130E-1,3.607050180E0,9.988050461E0,-6.078000069E0,1.223576920E1
2.420447410E-1,3.453000069E0,9.145050049E0,-4.927950382E0,1.094713866E1
2.440076590E-1,3.300000191E0,8.493000031E0,-3.931950092E0,9.923773592E0
2.459707630E-1,3.070050240E0,7.842000484E0,-3.165000200E0,8.996633056E0
2.479338130E-1,2.419050217E0,7.305000305E0,-2.590050220E0,8.119309919E0
2.498967150E-1,2.304000139E0,6.768000126E0,-2.014950037E0,7.427938206E0
2.518596610E-1,2.188950062E0,6.309000492E0,-1.441050053E0,6.831662670E0
2.538228940E-1,1.690050125E0,5.925000191E0,-1.171950102E0,6.271791110E0
2.557860430E-1,1.306950092E0,5.389050484E0,-1.057050109E0,5.645116349E0
2.577487480E-1,1.039050102E0,4.852050304E0,-1.057050109E0,5.073398487E0
2.597115840E-1,8.850000501E-1,4.392000198E0,-1.018950105E0,4.594687165E0
2.616749260E-1,1.192050099E0,3.817050219E0,-1.057050109E0,4.136207290E0
2.636381200E-1,2.533950090E0,3.204000235E0,-1.210950017E0,4.260624427E0
2.656011330E-1,4.258049965E0,2.782050133E0,-1.594050050E0,5.330270913E0
2.675641990E-1,3.760050297E0,2.322000027E0,-1.977000117E0,4.841300633E0
2.695273410E-1,3.108000040E0,1.863000035E0,-2.092050076E0,4.184149483E0
2.714904470E-1,2.572050095E0,1.402950048E0,-1.900950074E0,3.492466422E0
2.734532950E-1,2.035050154E0,9.430500269E-1,-1.516950130E0,2.707750022E0
2.754162180E-1,1.690050125E0,4.440000355E-1,-1.287000060E0,2.170201514E0
2.773805820E-1,1.384050012E0,2.295000106E-2,-1.096050024E0,1.765629291E0
2.793445240E-1,1.153950095E0,-2.059500068E-1,-9.420000315E-1,1.503788644E0
2.813067830E-1,8.850000501E-1,-4.740000367E-1,-7.120500207E-1,1.230819384E0
2.832695310E-1,3.870000243E-1,-9.340500236E-1,-5.590500236E-1,1.155316145E0
2.852329790E-1,4.050000105E-3,-1.356000066E0,-3.670500219E-1,1.404805431E0
2.871962210E-1,-2.250000089E-1,-1.624050021E0,-6.105000153E-2,1.640698198E0
2.891585950E-1,-5.320500135E-1,-1.930950046E0,1.680000126E-1,2.009942611E0
2.911212230E-1,-8.380500674E-1,-2.199000120E0,5.130000114E-1,2.408546959E0
2.930844190E-1,-1.106999993E0,-2.544000149E0,7.429500222E-1,2.872169995E0
2.950474180E-1,-1.183050036E0,-2.889000177E0,8.959500194E-1,3.247869433E0
2.970104630E-1,-1.222050071E0,-3.271950245E0,1.087950110E0,3.658237311E0
2.989734950E-1,-1.183050036E0,-3.579000235E0,1.318050027E0,3.993257560E0
3.009364450E-1,-1.183050036E0,-3.847050190E0,1.510050058E0,4.298796777E0
3.028994200E-1,-1.106999993E0,-4.231050014E0,1.548000097E0,4.639346669E0
3.048622790E-1,-1.068000078E0,-4.537050247E0,1.624950051E0,4.936183929E0
3.068251790E-1,-1.183050036E0,-4.767000198E0,1.701000094E0,5.197816811E0
3.087882850E-1,-1.144950032E0,-5.035050392E0,1.663050056E0,5.424792947E0
3.107513310E-1,-1.260000110E0,-5.227050304E0,1.510050058E0,5.584792417E0
3.127145940E-1,-1.336950064E0,-5.304000378E0,1.471050024E0,5.664260203E0
3.146777930E-1,-1.413000107E0,-5.533950329E0,1.395000100E0,5.879387793E0
3.166408670E-1,-1.336950064E0,-5.725050449E0,1.240950108E0,6.008626739E0
3.186039980E-1,-1.260000110E0,-5.802000046E0,1.126049995E0,6.043078139E0
3.205672440E-1,-1.260000110E0,-5.802000046E0,1.126049995E0,6.043078139E0
3.225304570E-1,-1.222050071E0,-5.725050449E0,1.050000072E0,5.947445601E0
3.244935120E-1,-1.144950032E0,-5.649000168E0,1.203000069E0,5.888066120E0
3.264566130E-1,-1.106999993E0,-5.419050217E0,1.203000069E0,5.660279446E0
3.284198050E-1,-9.529500604E-1,-5.227050304E0,1.318050027E0,5.474251052E0
3.303829810E-1,-7.620000243E-1,-4.920000076E0,1.510050058E0,5.202623950E0
3.323460870E-1,-6.079500318E-1,-4.614000320E0,1.548000097E0,4.904580155E0
3.343092130E-1,-5.700000525E-1,-4.306950092E0,1.816050053E0,4.708795701E0
3.362721020E-1,-6.079500318E-1,-3.961950302E0,2.046000004E0,4.500307707E0
3.382350600E-1,-7.620000243E-1,-3.463950157E0,2.506050110E0,4.342796551E0
3.401977510E-1,-7.620000243E-1,-3.081000090E0,2.812950134E0,4.240977959E0
3.421605210E-1,-6.469500065E-1,-2.812050104E0,3.004050255E0,4.165391702E0
3.441235140E-1,-5.700000525E-1,-2.581950188E0,3.310950041E0,4.237187393E0
3.460864420E-1,-4.170000255E-1,-2.314050198E0,3.618000269E0,4.314932593E0
3.480495000E-1,-2.629500031E-1,-2.083950043E0,4.153950214E0,4.654813946E0
3.500125190E-1,-1.480500102E-1,-1.816050053E0,4.498950005E0,4.853916742E0
3.519753070E-1,-3.299999982E-2,-1.585950017E0,4.729050159E0,4.988009810E0
3.539381520E-1,4.200000316E-2,-1.393950105E0,4.843950272E0,5.040705816E0
3.559012670E-1,2.340000123E-1,-1.240950108E0,5.035950184E0,5.191869358E0
3.578643030E-1,4.260000288E-1,-1.126049995E0,4.996950150E0,5.139939242E0
3.598280630E-1,5.410500169E-1,-1.011000037E0,4.959000111E0,5.089846588E0
3.617916110E-1,6.940500140E-1,-8.580000401E-1,4.921050072E0,5.043273074E0
3.637546080E-1,7.320000529E-1,-7.429500222E-1,4.768050194E0,4.880789021E0
3.657177670E-1,6.940500140E-1,-5.509500504E-1,4.461000443E0,4.548161863E0
3.676806490E-1,6.550500393E-1,-4.740000367E-1,4.231050014E0,4.307615444E0
3.696436130E-1,6.940500140E-1,-2.830500007E-1,3.924000263E0,3.994946907E0
3.716065290E-1,6.550500393E-1,-2.059500068E-1,3.655950069E0,3.719875921E0
3.735694590E-1,6.169500351E-1,-1.290000081E-1,3.349050045E0,3.407844561E0
3.755325600E-1,6.550500393E-1,-1.290000081E-1,3.004050255E0,3.077344552E0
3.774956110E-1,6.940500140E-1,-5.295000225E-2,2.506050110E0,2.600922198E0
3.794581530E-1,7.320000529E-1,1.380000114E-1,1.930950046E0,2.069646385E0
3.814208440E-1,7.320000529E-1,2.140500098E-1,1.548000097E0,1.725672560E0
3.833839860E-1,8.470500112E-1,3.289500177E-1,1.279950023E0,1.569705035E0
3.853469960E-1,8.470500112E-1,4.830000103E-1,9.349500537E-1,1.350893902E0
3.873109970E-1,9.240000248E-1,5.980500579E-1,4.750500321E-1,1.198796251E0
3.892747310E-1,1.000050068E0,7.129500508E-1,9.195000678E-2,1.231605747E0
3.912376510E-1,1.153950095E0,8.659500480E-1,-2.520000041E-1,1.464573081E0
3.932008100E-1,1.306950092E0,1.057950020E0,-6.360000372E-1,1.797741037E0
3.951639180E-1,1.422000051E0,1.134000063E0,-1.018950105E0,2.084778070E0
3.971270410E-1,1.614000082E0,1.402950048E0,-1.363950014E0,2.536459096E0
3.990901010E-1,1.767000079E0,1.518000126E0,-1.747050047E0,2.911837483E0
4.010531860E-1,1.996950150E0,1.671000123E0,-2.092050076E0,3.340168383E0
4.030162610E-1,2.265000105E0,1.824000120E0,-2.359950066E0,3.745205765E0
4.049793390E-1,2.419050217E0,2.053950071E0,-2.704950094E0,4.169804535E0
4.069421910E-1,2.572050095E0,2.245950222E0,-2.974050045E0,4.528212424E0
4.089051090E-1,2.725050211E0,2.476050138E0,-3.280050039E0,4.931069985E0
4.108680720E-1,2.955000162E0,2.667000055E0,-3.394950151E0,5.231692057E0
4.128310250E-1,3.184950113E0,2.896950245E0,-3.510000229E0,5.554847392E0
4.147938990E-1,3.300000191E0,3.127050161E0,-3.433950186E0,5.697407994E0
4.167567960E-1,3.415050268E0,3.280950069E0,-3.204000235E0,5.717763478E0
4.187195880E-1,3.568050146E0,3.472050190E0,-2.896950245E0,5.760072490E0
4.206824110E-1,3.682950258E0,3.702000141E0,-2.475000143E0,5.778802069E0
4.226456660E-1,3.682950258E0,3.894000292E0,-1.861950040E0,5.673994962E0
4.246087940E-1,3.682950258E0,4.123950005E0,-1.134000063E0,5.644204318E0
4.265711870E-1,3.645000219E0,4.315950394E0,1.500000060E-2,5.649219362E0
4.285337960E-1,3.760050297E0,4.545000076E0,1.585950017E0,6.108210981E0
4.304972670E-1,3.682950258E0,4.813950062E0,3.349050045E0,6.924909675E0
4.324604860E-1,3.607050180E0,5.119950294E0,5.457000256E0,8.306837774E0
4.344237480E-1,3.529950142E0,5.464950085E0,7.489050388E0,9.920287453E0
4.363869770E-1,3.529950142E0,5.734050274E0,9.712050438E0,1.181794416E1
4.383502080E-1,3.492000103E0,6.154950142E0,1.193505096E1,1.387526279E1
4.403134380E-1,3.453000069E0,6.577050209E0,1.434900093E1,1.615780389E1
4.422764900E-1,3.607050180E0,6.997950554E0,1.638105011E1,1.817473317E1
4.442395940E-1,3.837000132E0,7.534950256E0,1.776105118E1,1.967112057E1
4.462025050E-1,3.952050209E0,8.032950401E0,1.841205025E1,2.047316750E1
4.481654590E-1,4.027950287E0,8.685000420E0,1.814400101E1,2.051483337E1
4.501287360E-1,4.219950199E0,9.451050758E0,1.695600128E1,1.986545543E1
4.520919190E-1,4.219950199E0,1.037100029E1,1.492395115E1,1.865716872E1
4.540547980E-1,4.027950287E0,1.163595009E1,1.224105072E1,1.736269106E1
4.560177670E-1,4.105050087E0,1.320795059E1,9.060000420E0,1.653435825E1
4.579804730E-1,4.450050354E0,1.470195103E1,5.956050396E0,1.647497643E1
4.599432770E-1,5.254950047E0,1.581405067E1,2.659050226E0,1.687510731E1
4.619069400E-1,6.136050224E0,1.684905052E1,-5.970000029E-1,1.794151679E1
4.638703520E-1,6.673050404E0,1.830495071E1,-4.009050369E0,1.989153858E1
4.658331920E-1,6.750000477E0,1.995300102E1,-6.960000515E0,2.218392128E1
4.677962000E-1,6.750000477E0,2.206095123E1,-9.412950516E0,2.491689614E1
4.697587980E-1,6.634950161E0,2.424600029E1,-1.098405075E1,2.743247099E1
4.717215120E-1,6.520050526E0,2.669895172E1,-1.182705021E1,2.992029743E1
4.736848310E-1,6.634950161E0,2.949705124E1,-1.224900055E1,3.262110682E1
4.756479720E-1,6.787950516E0,3.256305313E1,-1.140600014E1,3.516426511E1
4.776111730E-1,7.248000145E0,3.574394989E1,-9.565950394E0,3.770505095E1
4.795743570E-1,7.822950363E0,3.693195343E1,-9.067950249E0,3.882519103E1
4.815372760E-1,8.359050751E0,3.693195343E1,-7.534950256E0,3.860852741E1
4.835002770E-1,8.857950211E0,3.654900360E1,-3.970050097E0,3.781605802E1
4.854624200E-1,9.088050842E0,3.605100250E1,1.500000060E-2,3.717886059E1
4.874248150E-1,8.320950508E0,3.547605133E1,2.467950106E0,3.652231117E1
4.893875120E-1,6.097950459E0,3.497805023E1,3.196050167E0,3.564917579E1
4.913501210E-1,2.380050182E0,3.417300034E1,2.122950077E0,3.432150212E1
4.933130740E-1,-1.605000019E0,3.279300308E1,-2.205000073E-2,3.283226405E1
4.952759430E-1,-5.016000271E0,3.103005219E1,-3.012000084E0,3.157683553E1
4.972390110E-1,-7.929000378E0,2.903700066E1,-5.887050152E0,3.067040615E1
4.992020200E-1,-1.011405087E1,2.719695091E1,-8.416049957E0,3.021254807E1
5.011649740E-1,-1.183800030E1,2.574105072E1,-1.040895081E1,3.018420448E1
5.031279450E-1,-1.256700039E1,2.455200195E1,-1.109895039E1,2.973074164E1
5.050915440E-1,-1.245195103E1,2.359395027E1,-1.071600056E1,2.874992594E1
5.070549520E-1,-1.172295094E1,2.267400169E1,-9.718950272E0,2.731292598E1
5.090181990E-1,-1.095705032E1,2.183100128E1,-8.110050201E0,2.573756949E1
5.109814930E-1,-1.061205006E1,2.129505157E1,-6.615000248E0,2.469520310E1
5.129446670E-1,-1.045905018E1,2.079600143E1,-5.503050327E0,2.391963564E1
5.149078770E-1,-1.049700069E1,2.045100021E1,-5.235000134E0,2.357616720E1
5.168709910E-1,-1.072695065E1,2.014500046E1,-5.350050449E0,2.344166277E1
5.188341230E-1,-1.107195091E1,1.991505051E1,-5.887050152E0,2.353411764E1
5.207971900E-1,-1.137795067E1,1.968495178E1,-6.805950165E0,2.373343729E1
5.227602770E-1,-1.168500042E1,1.953195000E1,-7.687950134E0,2.402375663E1
5.247235310E-1,-1.195305061E1,1.933995056E1,-8.455050468E0,2.425689562E1
5.266867360E-1,-1.218300056E1,1.914795113E1,-8.914050102E0,2.438298227E1
5.286499670E-1,-1.229805088E1,1.888005066E1,-9.489000320E0,2.444871153E1
5.306131930E-1,-1.237500095E1,1.868805122E1,-9.910950661E0,2.450736318E1
5.325764240E-1,-1.229805088E1,1.853505135E1,-1.017900085E1,2.446226159E1
5.345396540E-1,-1.229805088E1,1.834305000E1,-1.014105034E1,2.430124361E1
5.365028850E-1,-1.237500095E1,1.819005013E1,-1.017900085E1,2.424109384E1
5.384661160E-1,-1.206795025E1,1.788300133E1,-9.910950661E0,2.374161121E1
5.404293120E-1,-1.172295094E1,1.757700157E1,-9.259050369E0,2.306747877E1
5.423925120E-1,-1.126305008E1,1.723200035E1,-8.569950104E0,2.229892773E1
5.443556120E-1,-1.084200096E1,1.711695099E1,-8.071050644E0,2.181010900E1
5.463187420E-1,-1.026705074E1,1.684905052E1,-7.726050377E0,2.118949478E1
5.482817650E-1,-9.691950798E0,1.673400116E1,-7.342950344E0,2.068525138E1
5.502448190E-1,-9.154950142E0,1.650405121E1,-6.997950554E0,2.012878860E1
5.522079040E-1,-8.580000877E0,1.627395058E1,-6.423000336E0,1.948622118E1
5.541709760E-1,-7.891050339E0,1.588995075E1,-5.809950352E0,1.866854931E1
5.561338750E-1,-7.239000320E0,1.558395100E1,-5.503050327E0,1.804289936E1
5.580968240E-1,-6.856050491E0,1.527705097E1,-5.158050060E0,1.752139250E1
5.600597430E-1,-6.511050224E0,1.493205070E1,-4.353000164E0,1.686145082E1
5.620226710E-1,-6.204000473E0,1.474095058E1,-3.433950186E0,1.635778897E1
5.639855600E-1,-6.051000118E0,1.451100063E1,-2.437050104E0,1.590983831E1
5.659484840E-1,-5.974050522E0,1.435695076E1,-1.363950014E0,1.560998637E1
5.679112260E-1,-5.898000240E0,1.412700081E1,-5.209500194E-1,1.531763518E1
5.698740220E-1,-5.898000240E0,1.393605042E1,1.500000060E-2,1.513275035E1
