"Time (s)","Acceleration x (m/s^2)","Acceleration y (m/s^2)","Acceleration z (m/s^2)","Absolute acceleration (m/s^2)"
3.371174800E-2,-8.542050362E0,1.596705055E1,-2.322000027E0,1.825664295E1
3.567333500E-2,-8.236050606E0,1.608195114E1,-2.014950037E0,1.818025593E1
3.763751700E-2,-8.005949974E0,1.615904999E1,-1.708950043E0,1.811437666E1
3.960022400E-2,-7.737000465E0,1.627395058E1,-1.326000094E0,1.806822957E1
4.156336400E-2,-7.507050514E0,1.638899994E1,-1.057050109E0,1.805747716E1
4.352641500E-2,-7.162050247E0,1.654200172E1,-7.890000343E-1,1.804315122E1
4.548950200E-2,-6.894000530E0,1.665705109E1,-4.440000355E-1,1.803279596E1
4.745172100E-2,-6.511050224E0,1.661894989E1,-6.105000153E-2,1.784900551E1
4.941419500E-2,-6.127950191E0,1.661894989E1,4.360500276E-1,1.771810962E1
5.137714900E-2,-5.821050167E0,1.650405121E1,8.580000401E-1,1.752154375E1
5.333996200E-2,-5.398950100E0,1.654200172E1,1.165050030E0,1.743971975E1
5.530272500E-2,-4.939050198E0,1.661894989E1,1.240950108E0,1.738170502E1
5.726550200E-2,-4.518000126E0,1.661894989E1,1.356000066E0,1.727543217E1
5.922813500E-2,-4.057950020E0,1.673400116E1,1.203000069E0,1.726096644E1
6.119081000E-2,-3.559950113E0,1.681005096E1,1.011000037E0,1.721258782E1
6.315427000E-2,-3.061050177E0,1.688700104E1,8.580000401E-1,1.718362582E1
6.511750000E-2,-2.563050032E0,1.696395111E1,9.730500579E-1,1.718405334E1
6.708034800E-2,-1.950000048E0,1.692495155E1,1.165050030E0,1.707670421E1
6.904332500E-2,-1.452000022E0,1.677195168E1,1.279950023E0,1.688327395E1
7.100623900E-2,-9.150000215E-1,1.665705109E1,1.395000100E0,1.674038832E1
7.296917100E-2,-6.469500065E-1,1.661894989E1,1.585950017E0,1.670698289E1
7.493209200E-2,-5.320500135E-1,1.673400116E1,1.893000126E0,1.684913415E1
7.689501700E-2,-5.700000525E-1,1.692495155E1,2.200050116E0,1.707685878E1
7.885796900E-2,-4.170000255E-1,1.707900047E1,2.430000067E0,1.725604377E1
8.082092300E-2,-2.250000089E-1,1.715505028E1,2.583000183E0,1.734987795E1
8.278361700E-2,4.050000105E-3,1.723200035E1,2.851050138E0,1.746626289E1
8.474638700E-2,3.109500110E-1,1.711695099E1,3.234000206E0,1.742255602E1
8.671010100E-2,6.169500351E-1,1.696395111E1,3.618000269E0,1.735644522E1
8.867353800E-2,8.470500112E-1,1.692495155E1,4.000950336E0,1.741203843E1
9.063649000E-2,8.470500112E-1,1.696395111E1,4.384050369E0,1.754175101E1
9.259959800E-2,8.470500112E-1,1.700205040E1,4.996950150E0,1.774138445E1
9.456249000E-2,9.240000248E-1,1.681005096E1,5.380950451E0,1.767445097E1
9.652544500E-2,1.230000019E0,1.646505165E1,4.882050037E0,1.721758515E1
9.848800200E-2,1.384050012E0,1.573695087E1,4.078050137E0,1.631556650E1
1.004506750E-1,1.575000048E0,1.497105026E1,3.273000240E0,1.540537249E1
1.024136850E-1,1.843950033E0,1.389705086E1,2.545050144E0,1.424799826E1
1.043765960E-1,2.188950062E0,1.290105057E1,2.046000004E0,1.324442238E1
1.063395220E-1,2.610000134E0,1.190400028E1,2.122950077E0,1.237029670E1
1.083024430E-1,3.070050240E0,1.087005043E1,2.314950228E0,1.153005635E1
1.102655460E-1,3.607050180E0,9.949950218E0,2.812950134E0,1.095102775E1
1.122285960E-1,4.105050087E0,9.067950249E0,3.426000118E0,1.052694803E1
1.141916290E-1,4.488000393E0,8.148000717E0,3.963000298E0,1.011125287E1
1.161546700E-1,4.872000217E0,7.228050232E0,4.308000088E0,9.723166204E0
1.181177520E-1,5.178000450E0,6.385050297E0,4.498950005E0,9.371291645E0
1.200808220E-1,5.485050201E0,5.580000401E0,4.498950005E0,9.025670686E0
1.220437210E-1,5.599950314E0,4.736999989E0,4.345950127E0,8.525602319E0
1.240066700E-1,5.638050079E0,4.085999966E0,4.269000053E0,8.167457736E0
1.259694490E-1,5.293050289E0,3.664050102E0,4.384050369E0,7.788551993E0
1.279322810E-1,5.215950012E0,3.204000235E0,4.614000320E0,7.665556144E0
1.298953540E-1,5.254950047E0,2.782050133E0,4.959000111E0,7.742479256E0
1.318583560E-1,4.987050056E0,2.476050138E0,5.380950451E0,7.743133752E0
1.338214910E-1,4.795050144E0,2.245950222E0,5.266050339E0,7.467803188E0
1.357845870E-1,4.680000305E0,2.053950071E0,4.498950005E0,6.808940071E0
1.377474710E-1,4.756950378E0,1.708950043E0,3.655950069E0,6.238193493E0
1.397104250E-1,4.795050144E0,1.210950017E0,3.004050255E0,5.786469024E0
1.416735220E-1,4.795050144E0,7.890000343E-1,2.620950222E0,5.521268605E0
1.436365770E-1,4.717950344E0,2.910000086E-1,2.583000183E0,5.386615487E0
1.456006940E-1,4.488000393E0,-1.290000081E-1,2.812950134E0,5.298252258E0
1.475645000E-1,4.297049999E0,-5.890500546E-1,3.234000206E0,5.410210347E0
1.495272440E-1,3.990000248E0,-1.164000034E0,3.655950069E0,5.535428526E0
1.514903190E-1,3.721950293E0,-1.738950133E0,3.924000263E0,5.681077328E0
1.534532160E-1,3.453000069E0,-2.238000154E0,4.153950214E0,5.846978412E0
1.554161650E-1,3.184950113E0,-2.736000061E0,4.231050014E0,5.960821066E0
1.573789480E-1,2.955000162E0,-3.234000206E0,4.039050102E0,5.958582803E0
1.593417800E-1,2.725050211E0,-3.771000147E0,3.426000118E0,5.777873101E0
1.613047380E-1,2.610000134E0,-4.306950092E0,2.736000061E0,5.731283986E0
1.632676450E-1,2.533950090E0,-4.882050037E0,2.085000038E0,5.882392437E0
1.652309310E-1,2.494950056E0,-5.457000256E0,1.510050058E0,6.187396767E0
1.671941060E-1,2.380050182E0,-5.955000401E0,1.318050027E0,6.547054644E0
1.691571220E-1,2.304000139E0,-6.376950264E0,8.580000401E-1,6.834476965E0
1.711201850E-1,2.149950027E0,-6.721950531E0,5.130000114E-1,7.076020992E0
1.730843710E-1,1.996950150E0,-6.952050209E0,1.680000126E-1,7.235125155E0
1.750482410E-1,1.843950033E0,-7.219950199E0,-3.670500219E-1,7.460734436E0
1.770111830E-1,1.767000079E0,-7.527000427E0,-1.057050109E0,7.803549170E0
1.789743970E-1,1.767000079E0,-7.717950344E0,-1.632000089E0,8.084087523E0
1.809372250E-1,1.767000079E0,-8.062950134E0,-2.206950188E0,8.544242698E0
1.829001660E-1,1.882050037E0,-8.370000839E0,-2.667000055E0,8.983981060E0
1.848633050E-1,1.959000111E0,-8.677050591E0,-2.974050045E0,9.379438259E0
1.868263900E-1,1.996950150E0,-8.907000542E0,-2.974050045E0,9.600387608E0
1.887896000E-1,1.959000111E0,-8.983050346E0,-2.629050016E0,9.562676349E0
1.907527740E-1,1.843950033E0,-9.021000862E0,-2.284050226E0,9.486595475E0
1.927157000E-1,1.651950121E0,-8.907000542E0,-2.014950037E0,9.280281327E0
1.946786990E-1,1.384050012E0,-8.599950790E0,-1.594050050E0,8.855266433E0
1.966419050E-1,1.153950095E0,-7.909950256E0,-1.287000060E0,8.096621705E0
1.986050630E-1,7.699500322E-1,-7.066950321E0,-9.420000315E-1,7.170911654E0
2.005667300E-1,3.490500152E-1,-6.262050152E0,-5.590500236E-1,6.296637590E0
2.025288340E-1,1.570500135E-1,-5.494950294E0,-2.140500098E-1,5.501359909E0
2.044918520E-1,8.100000024E-2,-4.804950237E0,5.295000225E-2,4.805924623E0
2.064546020E-1,1.570500135E-1,-4.306950092E0,2.070000172E-1,4.314780737E0
2.084168300E-1,2.340000123E-1,-3.771000147E0,3.979500234E-1,3.799152844E0
2.103792140E-1,4.639500082E-1,-3.387000084E0,5.899500251E-1,3.469158430E0
2.123433100E-1,6.940500140E-1,-3.004050255E0,7.810500264E-1,3.180575813E0
2.143069040E-1,1.000050068E0,-2.620950222E0,1.050000072E0,2.995326419E0
2.162698930E-1,1.230000019E0,-2.391000032E0,1.203000069E0,2.945673160E0
2.182330600E-1,1.384050012E0,-2.083950043E0,1.471050024E0,2.902142379E0
2.201958060E-1,1.651950121E0,-1.816050053E0,1.548000097E0,2.902288975E0
2.221586760E-1,2.074050188E0,-1.624050021E0,1.816050053E0,3.199571916E0
2.241219220E-1,2.380050182E0,-1.432950020E0,2.046000004E0,3.450231970E0
2.260850580E-1,2.572050095E0,-1.279050112E0,2.314950228E0,3.689228298E0
2.280483050E-1,2.839950085E0,-1.126049995E0,2.391000032E0,3.879456950E0
2.300115200E-1,3.108000040E0,-8.959500194E-1,2.353049994E0,3.999904369E0
2.319744480E-1,3.376950264E0,-7.039500475E-1,2.391000032E0,4.197168082E0
2.339374540E-1,3.645000219E0,-5.509500504E-1,2.238000154E0,4.312565043E0
2.359005420E-1,3.952050209E0,-4.740000367E-1,2.008050203E0,4.458210685E0
2.378636060E-1,4.182000160E0,-3.210000098E-1,1.777950048E0,4.555576003E0
2.398265060E-1,4.450050354E0,-2.059500068E-1,1.548000097E0,4.716107278E0
2.417894540E-1,4.603050232E0,-9.105000645E-2,1.395000100E0,4.810653471E0
2.437523730E-1,4.756950378E0,6.105000153E-2,9.349500537E-1,4.848343594E0
2.457153000E-1,4.909950256E0,2.140500098E-1,2.830500007E-1,4.922757990E0
2.476785370E-1,5.140050411E0,4.440000355E-1,-3.670500219E-1,5.172231625E0
2.496416830E-1,5.293050289E0,6.739500165E-1,-1.249050021E0,5.480028827E0
2.516044340E-1,5.485050201E0,8.659500480E-1,-2.130000114E0,5.947482298E0
2.535673000E-1,5.791050434E0,1.096050024E0,-2.859000206E0,6.550684923E0
2.555301920E-1,6.097950459E0,1.402950048E0,-3.319050074E0,7.083033391E0
2.574930720E-1,6.366000175E0,1.747950077E0,-3.241950035E0,7.354694265E0
2.594560480E-1,6.558000088E0,2.208000183E0,-2.245050192E0,7.274811360E0
2.614189950E-1,6.634950161E0,2.706000090E0,5.295000225E-2,7.165738191E0
2.633815100E-1,6.442950249E0,3.280950069E0,3.273000240E0,7.936546594E0
2.653441510E-1,6.175050259E0,3.931950092E0,6.876000404E0,1.004344855E1
2.673069410E-1,5.830050468E0,4.545000076E0,9.979950905E0,1.241957867E1
2.692696880E-1,5.560950279E0,5.197050095E0,1.208805084E1,1.428476359E1
2.712328660E-1,5.485050201E0,5.925000191E0,1.304595089E1,1.534236740E1
2.731959180E-1,5.485050201E0,6.499950409E0,1.316100025E1,1.566994125E1
2.751589550E-1,5.715000153E0,7.228050232E0,1.231800079E1,1.538307773E1
2.771219970E-1,6.060000420E0,8.032950401E0,1.063200092E1,1.463869328E1
2.790849600E-1,6.520050526E0,9.183000565E0,8.370000839E0,1.403194471E1
2.810479350E-1,7.171050549E0,1.048605061E1,5.419050217E0,1.381113060E1
2.830111640E-1,8.128950119E0,1.175100040E1,3.196050167E0,1.464174092E1
2.849743180E-1,8.743050575E0,1.305405045E1,1.356000066E0,1.576984155E1
2.869377870E-1,9.202950478E0,1.443405056E1,-4.060500264E-1,1.712311273E1
2.889011640E-1,9.318000793E0,1.585200119E1,-2.206950188E0,1.851976538E1
2.908641460E-1,8.818950653E0,1.792200089E1,-4.315050125E0,2.043505968E1
2.928272430E-1,7.669050217E0,2.052795029E1,-6.307950497E0,2.280353731E1
2.947903610E-1,5.983050346E0,2.367105103E1,-7.687950134E0,2.559726793E1
2.967534720E-1,3.108000040E0,2.777205086E1,-8.493000031E0,2.920749086E1
2.987155980E-1,-1.480500102E-1,3.175800133E1,-9.489000320E0,3.314564367E1
3.006780120E-1,-3.406050205E0,3.585900116E1,-9.067950249E0,3.714427094E1
3.026410710E-1,-6.741000175E0,4.015200043E1,-9.336000443E0,4.177062516E1
3.046039380E-1,-9.922050476E0,4.425300217E1,-9.336000443E0,4.630265857E1
3.065670510E-1,-1.314105034E1,4.850700378E1,-9.106050491E0,5.107383651E1
3.085300910E-1,-1.555605030E1,5.233995438E1,-9.067950249E0,5.535060295E1
3.104929960E-1,-1.739595032E1,5.575095367E1,-8.838000298E0,5.906689574E1
3.124559400E-1,-1.850699997E1,5.831895447E1,-8.071050644E0,6.171508208E1
3.144186650E-1,-1.862205124E1,5.962200165E1,-7.650000572E0,6.292921723E1
3.163814640E-1,-1.770195007E1,5.973705292E1,-7.075050354E0,6.270511036E1
3.183445430E-1,-1.593900108E1,5.862600327E1,-6.460950375E0,6.109667662E1
3.203075390E-1,-1.367805099E1,5.624895096E1,-5.772000313E0,5.817516266E1
3.222701350E-1,-1.122495079E1,5.241705322E1,-5.082000256E0,5.384583285E1
3.242328490E-1,-8.848950386E0,4.762605286E1,-4.429950237E0,4.864328620E1
3.261956260E-1,-7.009050369E0,4.310295105E1,-4.084949970E0,4.385975368E1
3.281583850E-1,-5.706000328E0,3.904005051E1,-4.353000164E0,3.969423880E1
3.301213360E-1,-4.939050198E0,3.555300140E1,-4.774950027E0,3.621063757E1
3.320842310E-1,-4.363950253E0,3.248595047E1,-5.350050449E0,3.321150523E1
3.340471150E-1,-3.636000156E0,2.976495171E1,-5.848050117E0,3.055114625E1
3.360100030E-1,-2.640000105E0,2.727405167E1,-6.346950531E0,2.812698483E1
3.379729310E-1,-1.834950089E0,2.512695122E1,-6.652950287E0,2.605748389E1
3.399358470E-1,-1.030050039E0,2.321100044E1,-7.075050354E0,2.428719585E1
3.418987710E-1,-3.019500077E-1,2.160105133E1,-7.342950344E0,2.281700051E1
3.438616930E-1,3.870000243E-1,2.022105026E1,-7.458000183E0,2.155602954E1
3.458253370E-1,9.619500637E-1,1.903305054E1,-7.611000538E0,2.052095733E1
3.477887700E-1,1.269000053E0,1.807500076E1,-7.687950134E0,1.968300259E1
3.497515970E-1,1.498950124E0,1.723200035E1,-7.611000538E0,1.889751351E1
3.517146080E-1,1.614000082E0,1.657995033E1,-7.803000450E0,1.839528650E1
3.536777400E-1,1.729050040E0,1.604400063E1,-7.918050289E0,1.797484605E1
3.556408370E-1,1.651950121E0,1.554600048E1,-8.185950279E0,1.764700689E1
3.576040900E-1,1.804950118E0,1.523895073E1,-8.455050468E0,1.752059767E1
3.595672980E-1,1.996950150E0,1.485600090E1,-8.569950104E0,1.726651724E1
3.615301690E-1,2.227050066E0,1.458705044E1,-8.722949982E0,1.714151828E1
3.634931420E-1,2.380050182E0,1.439595032E1,-8.683950424E0,1.697995935E1
3.654558760E-1,2.341950178E0,1.416600037E1,-8.340000153E0,1.660469511E1
3.674186810E-1,2.494950056E0,1.385895061E1,-7.995000362E0,1.619306391E1
3.693814440E-1,2.610000134E0,1.351395035E1,-7.420050144E0,1.563637103E1
3.713442190E-1,2.649000168E0,1.305405045E1,-6.883050442E0,1.499339249E1
3.733072870E-1,2.649000168E0,1.247895050E1,-6.385050297E0,1.426570274E1
3.752702790E-1,2.572050095E0,1.198095036E1,-6.040050507E0,1.366165522E1
3.772330110E-1,2.725050211E0,1.152105045E1,-5.542050362E0,1.307190975E1
3.791958200E-1,2.764050245E0,1.094595051E1,-4.852050304E0,1.228805104E1
3.811589420E-1,2.917050123E0,1.033305073E1,-4.237950325E0,1.154302134E1
3.831219720E-1,2.955000162E0,9.835050583E0,-3.817050219E0,1.095582577E1
3.850850570E-1,2.878050089E0,9.412950516E0,-3.433950186E0,1.042491360E1
3.870481250E-1,2.341950178E0,8.877000809E0,-2.935050249E0,9.638485045E0
3.890112490E-1,1.996950150E0,8.148000717E0,-2.590050220E0,8.779868207E0
3.909743560E-1,1.729050040E0,7.650000572E0,-2.284050226E0,8.168782543E0
3.929374290E-1,1.345050097E0,7.036950111E0,-1.900950074E0,7.412249174E0
3.949005120E-1,1.077000022E0,6.309000492E0,-1.402050018E0,6.552034837E0
3.968624780E-1,5.790000558E-1,5.695050240E0,-1.018950105E0,5.814387123E0
3.988247910E-1,1.189500093E-1,5.005050182E0,-6.360000372E-1,5.046699167E0
4.007881330E-1,3.490500152E-1,4.392000198E0,-4.060500264E-1,4.424520119E0
4.027511730E-1,8.100000024E-2,3.817050219E0,-1.369500011E-1,3.820364992E0
4.047140780E-1,-5.700000525E-1,3.280950069E0,2.449500114E-1,3.339091782E0
4.066770220E-1,-4.549500346E-1,2.743950129E0,2.070000172E-1,2.789102158E0
4.086401490E-1,-9.529500604E-1,2.092950106E0,2.449500114E-1,2.312694202E0
4.106032020E-1,-1.030050039E0,1.633050084E0,2.449500114E-1,1.946241549E0
4.125655640E-1,-2.256000042E0,1.096050024E0,6.280500293E-1,2.585596388E0
4.145281280E-1,-1.758000135E0,4.440000355E-1,1.011000037E0,2.076010979E0
4.164921930E-1,-1.260000110E0,6.105000153E-2,9.349500537E-1,1.570178010E0
4.184558180E-1,-2.448000193E0,-2.830500007E-1,1.087950110E0,2.693781299E0
4.204186480E-1,-1.911000133E0,-5.890500546E-1,9.730500579E-1,2.223899253E0
4.223817240E-1,-3.100050211E0,-9.340500236E-1,1.011000037E0,3.391884702E0
4.243448000E-1,-3.751050234E0,-1.356000066E0,1.050000072E0,4.124513812E0
4.263078760E-1,-2.830950022E0,-1.777950048E0,9.349500537E-1,3.471241277E0
4.282709090E-1,-2.640000105E0,-2.046000004E0,8.959500194E-1,3.458098178E0
4.302339550E-1,-2.985000134E0,-2.275950193E0,8.580000401E-1,3.850498558E0
4.321970710E-1,-2.946000099E0,-2.544000149E0,8.200500607E-1,3.977855634E0
4.341601740E-1,-1.413000107E0,-2.773950100E0,7.429500222E-1,3.200522331E0
4.361232470E-1,-6.850500107E-1,-2.812050104E0,7.050000429E-1,2.978916643E0
4.380863290E-1,-1.297950029E0,-2.926950216E0,8.959500194E-1,3.324821542E0
4.400495390E-1,-1.222050071E0,-3.118950129E0,9.730500579E-1,3.488277898E0
4.420127120E-1,-9.150000215E-1,-3.271950245E0,1.126049995E0,3.579227855E0
4.439760120E-1,-3.019500077E-1,-3.463950157E0,1.279950023E0,3.705185091E0
4.459392640E-1,5.020500422E-1,-3.694050074E0,1.356000066E0,3.966963117E0
4.479032130E-1,1.306950092E0,-3.847050190E0,1.318050027E0,4.271436478E0
4.498669570E-1,1.920000076E0,-3.886050224E0,1.203000069E0,4.498332558E0
4.518304610E-1,2.265000105E0,-4.000950336E0,1.279950023E0,4.772431365E0
4.537940360E-1,2.419050217E0,-4.116000175E0,1.050000072E0,4.888329116E0
4.557571620E-1,2.494950056E0,-4.306950092E0,9.349500537E-1,5.064457176E0
4.577204200E-1,2.533950090E0,-4.461000443E0,1.087950110E0,5.244527000E0
4.596836900E-1,2.533950090E0,-4.614000320E0,1.356000066E0,5.435865910E0
4.616469570E-1,2.494950056E0,-4.767000198E0,1.585950017E0,5.609305138E0
4.636103620E-1,2.494950056E0,-4.959000111E0,1.930950046E0,5.877501677E0
4.655737260E-1,2.380050182E0,-5.074050426E0,2.353049994E0,6.078443129E0
4.675371140E-1,2.304000139E0,-5.188950062E0,2.851050138E0,6.353117839E0
4.695004950E-1,2.188950062E0,-5.304000378E0,3.157950163E0,6.549547436E0
4.714635210E-1,1.959000111E0,-5.419050217E0,3.388050079E0,6.684509707E0
4.734266510E-1,1.651950121E0,-5.494950294E0,3.694050074E0,6.824179356E0
4.753895380E-1,1.422000051E0,-5.457000256E0,3.963000298E0,6.892481940E0
4.773524970E-1,1.345050097E0,-5.457000256E0,4.192950249E0,7.012049867E0
4.793152490E-1,1.192050099E0,-5.380050182E0,4.384050369E0,7.041720034E0
4.812780510E-1,1.000050068E0,-5.304000378E0,4.614000320E0,7.100811158E0
4.832411290E-1,8.470500112E-1,-5.227050304E0,4.690950394E0,7.074218275E0
4.852041260E-1,7.699500322E-1,-5.112000465E0,4.690950394E0,6.980715394E0
4.871670820E-1,7.699500322E-1,-5.035050392E0,4.576050282E0,6.847247015E0
4.891300510E-1,8.850000501E-1,-4.996950150E0,4.461000443E0,6.756719680E0
4.910930950E-1,9.240000248E-1,-4.959000111E0,4.308000088E0,6.633575423E0
4.930561210E-1,1.000050068E0,-4.843950272E0,4.192950249E0,6.484195105E0
4.950190270E-1,1.000050068E0,-4.651950359E0,4.153950214E0,6.316331583E0
4.969819690E-1,8.850000501E-1,-4.498950005E0,4.078050137E0,6.136307452E0
4.989449330E-1,9.240000248E-1,-4.306950092E0,4.000950336E0,5.950730942E0
5.009078900E-1,9.619500637E-1,-4.077000141E0,3.808950186E0,5.661747044E0
5.028711420E-1,9.619500637E-1,-3.808950186E0,3.579000235E0,5.314385395E0
5.048342940E-1,1.000050068E0,-3.616950274E0,3.310950041E0,5.004479952E0
5.067975380E-1,9.619500637E-1,-3.349050045E0,3.043050051E0,4.626190413E0
5.087607550E-1,1.000050068E0,-3.081000090E0,2.736000061E0,4.240089389E0
5.107236290E-1,1.039050102E0,-2.812050104E0,2.238000154E0,3.741108872E0
5.126866030E-1,1.039050102E0,-2.581950188E0,1.777950048E0,3.302604769E0
5.146493270E-1,1.077000022E0,-2.428950071E0,1.395000100E0,3.000958643E0
5.166121320E-1,1.114950061E0,-2.314050198E0,7.429500222E-1,2.673932813E0
5.185759750E-1,1.153950095E0,-2.122950077E0,5.295000225E-2,2.416882611E0
5.205395140E-1,1.269000053E0,-1.969050050E0,-7.120500207E-1,2.448373841E0
5.225023330E-1,1.306950092E0,-1.893000126E0,-1.594050050E0,2.798671753E0
5.244653630E-1,1.345050097E0,-1.777950048E0,-2.359950066E0,3.246479701E0
5.264281370E-1,1.498950124E0,-1.777950048E0,-3.204000235E0,3.958986657E0
5.283909830E-1,1.614000082E0,-1.663050056E0,-4.123950005E0,4.730506885E0
5.303542340E-1,1.690050125E0,-1.548000097E0,-5.005050182E0,5.504825252E0
5.323173660E-1,1.767000079E0,-1.432950020E0,-5.848050117E0,6.274976113E0
5.342806590E-1,1.729050040E0,-1.279050112E0,-6.538050175E0,6.882709010E0
5.362439040E-1,1.843950033E0,-1.048950076E0,-7.036050320E0,7.348908224E0
5.382067830E-1,1.651950121E0,-7.810500264E-1,-7.342950344E0,7.566894878E0
5.401697620E-1,1.651950121E0,-4.740000367E-1,-7.458000183E0,7.653455557E0
5.421320900E-1,1.537050128E0,-1.290000081E-1,-7.075050354E0,7.241236193E0
5.440946080E-1,1.422000051E0,2.140500098E-1,-6.499950409E0,6.657120764E0
5.460580050E-1,1.384050012E0,6.739500165E-1,-5.542050362E0,5.751880151E0
5.480211450E-1,1.306950092E0,1.057950020E0,-4.237950325E0,4.559342030E0
5.499843320E-1,1.192050099E0,1.288050056E0,-2.743950129E0,3.257194912E0
5.519475150E-1,9.619500637E-1,1.518000126E0,-1.096050024E0,2.104993578E0
5.539094930E-1,8.089500666E-1,1.786050081E0,2.449500114E-1,1.975949294E0
5.558718240E-1,5.790000558E-1,1.863000035E0,1.240950108E0,2.312134807E0
5.578343520E-1,3.490500152E-1,2.131050110E0,1.816050053E0,2.821568407E0
5.597968220E-1,1.570500135E-1,2.322000027E0,2.391000032E0,3.336649515E0
5.617601840E-1,4.200000316E-2,2.551950216E0,3.196050167E0,4.090103981E0
5.637232840E-1,-3.299999982E-2,2.974050045E0,4.461000443E0,5.361584432E0
5.656863130E-1,-7.200000435E-2,3.511050224E0,6.223950386E0,7.146342847E0
5.676493630E-1,-7.200000435E-2,4.123950005E0,8.677050591E0,9.607463484E0
5.696124440E-1,-3.299999982E-2,4.852050304E0,1.170495033E1,1.267080674E1
