"Time (s)","Acceleration x (m/s^2)","Acceleration y (m/s^2)","Acceleration z (m/s^2)","Absolute acceleration (m/s^2)"
4.420542700E-2,8.743050575E0,-2.044305038E1,-2.071905136E1,3.039141872E1
4.616753700E-2,9.471000671E0,-1.910205078E1,-2.010600090E1,2.930596304E1
4.813219600E-2,1.008405018E1,-1.772205162E1,-1.949295044E1,2.820876280E1
5.009536200E-2,1.085100079E1,-1.638000107E1,-1.880295181E1,2.719558144E1
5.205896500E-2,1.169400024E1,-1.530705070E1,-1.826595116E1,2.654619398E1
5.402229200E-2,1.246005058E1,-1.438695049E1,-1.765305138E1,2.595895660E1
5.598571400E-2,1.341900063E1,-1.362105083E1,-1.688700104E1,2.551026083E1
5.794922600E-2,1.453005028E1,-1.296900082E1,-1.604295158E1,2.523278896E1
5.991271200E-2,1.560300064E1,-1.231800079E1,-1.504695034E1,2.493185687E1
6.187612500E-2,1.648500061E1,-1.197300053E1,-1.336005020E1,2.436388574E1
6.383956000E-2,1.729005051E1,-1.174305058E1,-1.136700058E1,2.379188487E1
6.580256100E-2,1.809495163E1,-1.158900070E1,-8.875950813E0,2.324897233E1
6.776570000E-2,1.886100006E1,-1.135905075E1,-6.385050297E0,2.292453325E1
6.972836100E-2,1.939800072E1,-1.124400043E1,-4.009050369E0,2.277679658E1
7.169116200E-2,1.981905174E1,-1.105305099E1,-1.363950014E0,2.273378780E1
7.365361000E-2,2.035605049E1,-1.090005016E1,1.240950108E0,2.312401008E1
7.561616200E-2,2.066205025E1,-1.066995049E1,4.039050102E0,2.360258650E1
7.757928900E-2,2.062395096E1,-1.021005058E1,6.415950298E0,2.389051913E1
7.954227500E-2,2.073900032E1,-9.903000832E0,8.907000542E0,2.464772238E1
8.150550200E-2,2.073900032E1,-9.136050224E0,1.044000053E1,2.495129574E1
8.346865900E-2,2.054805183E1,-8.485050201E0,1.224105072E1,2.537837335E1
8.543176800E-2,2.008800125E1,-7.948050499E0,1.316100025E1,2.529646672E1
8.739489200E-2,1.970400047E1,-7.372950554E0,1.304595089E1,2.475489586E1
8.935842600E-2,1.935900116E1,-6.837000370E0,1.220295048E1,2.388362410E1
9.132186100E-2,1.866900063E1,-6.223950386E0,1.116795063E1,2.262724606E1
9.328528300E-2,1.805595016E1,-5.533950329E0,9.405000687E0,2.109729794E1
9.524870900E-2,1.786500168E1,-4.920000076E0,7.144050121E0,1.985956036E1
9.721222100E-2,1.729005051E1,-4.192049980E0,5.074050426E0,1.850040857E1
9.917570700E-2,1.660004997E1,-3.271950245E0,2.506050110E0,1.710402305E1
1.011396560E-1,1.610205078E1,-2.697000027E0,-5.209500194E-1,1.633466368E1
1.031034720E-1,1.594800091E1,-2.083950043E0,-3.739950180E0,1.651268628E1
1.050667380E-1,1.571805096E1,-1.432950020E0,-6.423000336E0,1.704011165E1
1.070301660E-1,1.525800037E1,-8.190000653E-1,-8.683950424E0,1.757521924E1
1.089924620E-1,1.460700035E1,-1.680000126E-1,-1.040895081E1,1.793708282E1
1.109550890E-1,1.395495033E1,2.910000086E-1,-1.167405033E1,1.819639445E1
1.129184280E-1,1.303500080E1,8.659500480E-1,-1.236405087E1,1.798696387E1
1.148815860E-1,1.161705017E1,1.249050021E0,-1.182705021E1,1.662513450E1
1.168446500E-1,1.042905045E1,1.363950014E0,-1.037100029E1,1.477102230E1
1.188077420E-1,9.318000793E0,1.326000094E0,-8.224950790E0,1.249932920E1
1.207707710E-1,7.861050606E0,1.402950048E0,-5.887050152E0,9.920773405E0
1.227338190E-1,6.097950459E0,1.594050050E0,-3.970050097E0,7.448979334E0
1.246968860E-1,4.564949989E0,1.633050084E0,-2.704950094E0,5.551790341E0
1.266599570E-1,3.031950235E0,1.555950046E0,-1.786050081E0,3.847554765E0
1.286228560E-1,1.651950121E0,1.288050056E0,-8.659500480E-1,2.266689576E0
1.305858050E-1,7.320000529E-1,9.430500269E-1,2.070000172E-1,1.211617282E0
1.325474620E-1,-7.200000435E-2,5.209500194E-1,1.279950023E0,1.383779240E0
1.345094980E-1,-7.620000243E-1,1.759500057E-1,2.122950077E0,2.262414522E0
1.364734580E-1,-1.068000078E0,-5.295000225E-2,3.118950129E0,3.297162079E0
1.384368650E-1,-1.413000107E0,-2.059500068E-1,3.694050074E0,3.960428090E0
1.403995260E-1,-1.489950061E0,-4.360500276E-1,3.847950220E0,4.149314607E0
1.423624060E-1,-1.567050099E0,-6.660000086E-1,3.694050074E0,4.067580113E0
1.443255160E-1,-1.834950089E0,-8.190000653E-1,3.081000090E0,3.678364377E0
1.462885580E-1,-1.987950087E0,-1.126049995E0,2.238000154E0,3.198214944E0
1.482521930E-1,-2.332950115E0,-1.356000066E0,1.318050027E0,3.003106440E0
1.502156780E-1,-2.640000105E0,-1.624050021E0,2.830500007E-1,3.112435755E0
1.521786860E-1,-3.061050177E0,-1.930950046E0,-7.890000343E-1,3.704202656E0
1.541418340E-1,-3.483000278E0,-2.275950193E0,-1.747050047E0,4.512585078E0
1.561048540E-1,-3.712950230E0,-2.659050226E0,-2.551950216E0,5.231538724E0
1.580679110E-1,-3.943050146E0,-2.965950251E0,-3.357000113E0,5.967742881E0
1.600307910E-1,-4.134000301E0,-3.234000206E0,-3.931950092E0,6.558120718E0
1.619937370E-1,-4.096050262E0,-3.502050161E0,-4.545000076E0,7.049752391E0
1.639564760E-1,-3.865950108E0,-3.847050190E0,-5.005050182E0,7.402424787E0
1.659192760E-1,-3.520950079E0,-4.231050014E0,-5.388000488E0,7.702559506E0
1.678822190E-1,-3.022950172E0,-4.729050159E0,-5.656950474E0,7.968891505E0
1.698451200E-1,-2.448000193E0,-5.227050304E0,-5.656950474E0,8.081822102E0
1.718080330E-1,-1.873050094E0,-5.764050484E0,-5.503050327E0,8.186339691E0
1.737709520E-1,-1.260000110E0,-6.415050507E0,-5.311950207E0,8.423614917E0
1.757338760E-1,-9.529500604E-1,-6.837000370E0,-5.197050095E0,8.640718579E0
1.776967980E-1,-7.620000243E-1,-7.219950199E0,-5.082000256E0,8.862000424E0
1.796597660E-1,-5.700000525E-1,-7.450050354E0,-4.927950382E0,8.950577931E0
1.816227210E-1,-4.170000255E-1,-7.756950378E0,-4.315050125E0,8.886159225E0
1.835857990E-1,-1.099500060E-1,-8.254950523E0,-3.088950157E0,8.814641809E0
1.855488550E-1,1.960500032E-1,-8.752950668E0,-1.786050081E0,8.935466183E0
1.875117110E-1,7.320000529E-1,-9.366000175E0,-1.759500057E-1,9.396208904E0
1.894746260E-1,1.192050099E0,-9.940950394E0,1.395000100E0,1.010888240E1
1.914373700E-1,1.306950092E0,-1.036305046E1,2.965950251E0,1.085807507E1
1.934001650E-1,1.575000048E0,-1.132095051E1,3.924000263E0,1.208479721E1
1.953629260E-1,2.380050182E0,-1.231800079E1,3.388050079E0,1.299525551E1
1.973257300E-1,3.108000040E0,-1.304595089E1,2.008050203E0,1.356055915E1
1.992888540E-1,4.450050354E0,-1.423395061E1,2.275950193E0,1.508602822E1
2.012518840E-1,5.944950104E0,-1.557600117E1,3.733050108E0,1.708478584E1
2.032149240E-1,6.750000477E0,-1.680195045E1,4.729050159E0,1.871448532E1
2.051779610E-1,7.783950329E0,-1.806705093E1,5.341950417E0,2.038491222E1
2.071406620E-1,8.857950211E0,-1.971495056E1,4.996950150E0,2.218359909E1
2.091034780E-1,1.012200069E1,-2.170800018E1,4.078050137E0,2.429655661E1
2.110669590E-1,1.150200081E1,-2.393100166E1,2.353049994E0,2.665568809E1
2.130302450E-1,1.246005058E1,-2.584695053E1,-2.910000086E-1,2.869498899E1
2.149931070E-1,1.334205055E1,-2.818500137E1,-3.625050068E0,3.139340063E1
2.169560930E-1,1.445295048E1,-3.094500160E1,-7.113000393E0,3.488661171E1
2.189187090E-1,1.506705093E1,-3.381900024E1,-1.148205090E1,3.876310481E1
2.208814200E-1,1.541205120E1,-3.661695099E1,-1.558305073E1,4.267509686E1
2.228443330E-1,1.571805096E1,-4.006695175E1,-1.857299995E1,4.687615679E1
2.248071870E-1,1.556505108E1,-4.405305099E1,-2.079600143E1,5.114113601E1
2.267701220E-1,1.498995113E1,-4.761705399E1,-2.401605034E1,5.539723043E1
2.287330330E-1,1.399305058E1,-5.137305069E1,-2.574000168E1,5.914003287E1
2.306956440E-1,1.453005028E1,-5.662395096E1,-2.677500153E1,6.429848280E1
2.326583430E-1,1.525800037E1,-6.187500381E1,-2.930505180E1,7.014348675E1
2.346208990E-1,1.330395031E1,-6.517095184E1,-3.018600082E1,7.304411478E1
2.365834970E-1,1.142595100E1,-6.743295288E1,-2.865300179E1,7.415355691E1
2.385463390E-1,1.012200069E1,-6.973200226E1,-2.627700043E1,7.520297726E1
2.405091100E-1,9.739050865E0,-7.283700562E1,-2.405400085E1,7.732188213E1
2.424718850E-1,9.010950089E0,-7.513695526E1,-1.937805176E1,7.811701580E1
2.444346560E-1,8.320950508E0,-7.743600464E1,-1.428000069E1,7.918012030E1
2.463974250E-1,6.328050137E0,-7.816395569E1,-9.259050369E0,7.896441098E1
2.483601940E-1,4.987050056E0,-7.820295715E1,-3.394950151E0,7.843531642E1
2.503223770E-1,4.297049999E0,-7.831800079E1,2.200050116E0,7.846664328E1
2.522847320E-1,3.837000132E0,-7.774305725E1,6.339000225E0,7.809538043E1
2.542473770E-1,3.682950258E0,-7.613294983E1,7.642050266E0,7.660411937E1
2.562099470E-1,5.410500169E-1,-7.291395569E1,8.409000397E0,7.339924357E1
2.581720760E-1,-4.900950432E0,-6.896595001E1,6.952050209E0,6.948850681E1
2.601343340E-1,-9.807000160E0,-6.298695374E1,3.924000263E0,6.386651213E1
2.620982260E-1,-1.252800083E1,-5.658600235E1,1.585950017E0,5.797794153E1
2.640616400E-1,-1.337100029E1,-5.056905365E1,-2.520000041E-1,5.230751705E1
2.660243080E-1,-1.467495060E1,-4.459005356E1,-1.326000094E0,4.696153030E1
2.679871890E-1,-1.432995033E1,-3.914700317E1,-2.169000149E0,4.174374080E1
2.699499840E-1,-1.294995022E1,-3.477795029E1,-1.671000123E0,3.714834153E1
2.719128040E-1,-1.107195091E1,-3.151995087E1,-5.970000029E-1,3.341334776E1
2.738748440E-1,-9.424050331E0,-2.875995064E1,2.449500114E-1,3.026561557E1
2.758371120E-1,-7.852050304E0,-2.642205048E1,1.432950020E0,2.760131865E1
2.778001650E-1,-6.013050079E0,-2.442900085E1,2.736000061E0,2.530649226E1
2.797629750E-1,-5.016000271E0,-2.270400047E1,4.423050404E0,2.366844463E1
2.817259170E-1,-4.671000004E0,-2.121000099E1,6.070950508E0,2.255080538E1
2.836888210E-1,-4.363950253E0,-1.994505119E1,7.144050121E0,2.163068610E1
2.856515690E-1,-4.134000301E0,-1.875705147E1,7.948950291E0,2.078708130E1
2.876143620E-1,-4.479000092E0,-1.756905174E1,8.254950523E0,1.992177776E1
2.895770870E-1,-5.131050110E0,-1.653404999E1,8.677050591E0,1.936475384E1
2.915398280E-1,-6.166050434E0,-1.576695061E1,9.214050293E0,1.927474078E1
2.935026010E-1,-7.123950481E0,-1.496205044E1,9.520050049E0,1.911138343E1
2.954653650E-1,-7.737000465E0,-1.408095074E1,1.063200092E1,1.926587121E1
2.974280010E-1,-8.197050095E0,-1.304595089E1,1.147500038E1,1.921104106E1
2.993906750E-1,-8.464950562E0,-1.185795021E1,1.247100067E1,1.917790992E1
3.013531150E-1,-8.274000168E0,-1.074600029E1,1.342995071E1,1.908662299E1
3.033156130E-1,-8.005949974E0,-9.595950127E0,1.465605068E1,1.926077141E1
3.052782480E-1,-7.813950539E0,-7.948050499E0,1.538400078E1,1.899728427E1
3.072408420E-1,-7.621950150E0,-6.415050507E0,1.618905067E1,1.900874427E1
3.092032820E-1,-7.966950417E0,-4.729050159E0,1.641900063E1,1.885258062E1
3.111657670E-1,-8.542050362E0,-2.697000027E0,1.634205055E1,1.863606852E1
3.131276690E-1,-8.389050484E0,-9.340500236E-1,1.672605133E1,1.873524514E1
3.150897520E-1,-8.311950684E0,7.510500550E-1,1.672605133E1,1.869260264E1
3.170527730E-1,-8.121000290E0,2.896950245E0,1.638105011E1,1.851166576E1
3.190155190E-1,-7.468950272E0,4.929000378E0,1.645695114E1,1.873263206E1
3.209784720E-1,-7.852050304E0,7.573050499E0,1.549905109E1,1.895326813E1
3.229413650E-1,-7.966950417E0,1.010295010E1,1.419600105E1,1.915902778E1
3.249041040E-1,-7.507050514E0,1.236405087E1,1.204995060E1,1.882622826E1
3.268668950E-1,-6.586950302E0,1.489395046E1,9.520050049E0,1.886396108E1
3.288293450E-1,-5.553000450E0,1.765395164E1,7.527000427E0,1.997882775E1
3.307918950E-1,-4.363950253E0,2.010600090E1,6.415950298E0,2.155132832E1
3.327548810E-1,-3.790050268E0,2.198505020E1,5.841000080E0,2.306131382E1
3.347177400E-1,-3.790050268E0,2.344095039E1,5.725950241E0,2.442599317E1
3.366806440E-1,-3.330000162E0,2.424600029E1,5.686950207E0,2.512566086E1
3.386435240E-1,-2.640000105E0,2.432295036E1,6.147000313E0,2.522619923E1
3.406059600E-1,-1.758000135E0,2.367105103E1,6.301050186E0,2.455834796E1
3.425685260E-1,-1.605000019E0,2.301900101E1,6.531000137E0,2.398133431E1
3.445314640E-1,-1.605000019E0,2.167800140E1,6.799050331E0,2.277583929E1
3.464942930E-1,-1.873050094E0,1.957005119E1,7.029000282E0,2.087826778E1
3.484572820E-1,-2.716050148E0,1.707900047E1,7.297050476E0,1.877008607E1
3.504202210E-1,-3.675000191E0,1.428105068E1,7.450050354E0,1.652141898E1
3.523832770E-1,-4.594050407E0,1.148295021E1,7.450050354E0,1.443837577E1
3.543462980E-1,-4.978050232E0,8.914950371E0,7.642050266E0,1.275375460E1
3.563094300E-1,-5.361000061E0,6.960000515E0,7.909950256E0,1.182155835E1
3.582725290E-1,-6.127950191E0,5.311950207E0,8.025000572E0,1.140917275E1
3.602355330E-1,-6.586950302E0,4.047000408E0,8.332050323E0,1.136614223E1
3.621985830E-1,-6.970950127E0,3.166050196E0,9.022050858E0,1.183281121E1
3.641618430E-1,-7.507050514E0,2.398950100E0,9.442950249E0,1.229959668E1
3.661250420E-1,-7.966950417E0,1.939050078E0,1.009500027E1,1.300543135E1
3.680881440E-1,-8.274000168E0,1.479000092E0,1.105305099E1,1.388583654E1
3.700512750E-1,-8.427000046E0,1.173000097E0,1.132200050E1,1.416255466E1
3.720142980E-1,-8.350950241E0,9.040500522E-1,1.185795021E1,1.453157457E1
3.739773520E-1,-8.427000046E0,6.739500165E-1,1.251000023E1,1.509863054E1
3.759401180E-1,-8.656949997E0,4.440000355E-1,1.320000076E1,1.579176809E1
3.779029680E-1,-8.848950386E0,3.679500222E-1,1.342995071E1,1.608735175E1
3.798660820E-1,-8.964000702E0,3.289500177E-1,1.366005039E1,1.634192441E1
3.818291190E-1,-9.154950142E0,2.910000086E-1,1.362105083E1,1.641434796E1
3.837919750E-1,-9.346950531E0,2.910000086E-1,1.381305027E1,1.668084299E1
3.857548870E-1,-9.270000458E0,1.380000114E-1,1.373595047E1,1.657191262E1
3.877178110E-1,-9.462000847E0,2.530499995E-1,1.366005039E1,1.661897924E1
3.896807310E-1,-9.309000015E0,1.380000114E-1,1.316100025E1,1.612105620E1
3.916446010E-1,-9.040050507E0,-1.500000060E-2,1.293105030E1,1.577766776E1
3.936081920E-1,-8.809950829E0,-2.059500068E-1,1.273995018E1,1.549077079E1
3.955703140E-1,-8.964000702E0,-9.105000645E-2,1.270095062E1,1.554592376E1
3.975328430E-1,-9.040050507E0,2.295000106E-2,1.235595036E1,1.530988403E1
3.994966880E-1,-9.001950264E0,-2.830500007E-1,1.216500092E1,1.513613138E1
4.014601480E-1,-9.232050896E0,-3.210000098E-1,1.220295048E1,1.530509082E1
4.034231600E-1,-9.462000847E0,-3.210000098E-1,1.189605045E1,1.520356923E1
4.053863040E-1,-1.003695011E1,-2.440500110E-1,1.197300053E1,1.562538542E1
4.073484680E-1,-1.053495026E1,-2.059500068E-1,1.216500092E1,1.609393798E1
4.093109200E-1,-1.130205059E1,3.289500177E-1,1.208805084E1,1.655190408E1
4.112742830E-1,-1.134000015E1,5.590500236E-1,1.170495033E1,1.630686980E1
4.132373790E-1,-1.168500042E1,9.810000658E-1,1.151295090E1,1.643318698E1
4.152004980E-1,-1.180005074E1,1.210950017E0,1.147500038E1,1.650403681E1
4.171636100E-1,-1.199205017E1,1.708950043E0,1.101495075E1,1.637250493E1
4.191268670E-1,-1.195305061E1,2.284050226E0,9.520050049E0,1.545068469E1
4.210900770E-1,-1.199205017E1,2.821050167E0,9.712050438E0,1.568730426E1
4.230531320E-1,-1.160805035E1,2.974050045E0,9.060000420E0,1.502249693E1
4.250162320E-1,-1.103295040E1,3.088950157E0,8.638950348E0,1.434918363E1
4.269793050E-1,-1.080300045E1,3.472050190E0,7.527000427E0,1.361674288E1
4.289423860E-1,-1.026705074E1,3.702000141E0,6.760950089E0,1.283851947E1
4.309050920E-1,-9.615000725E0,3.702000141E0,6.376950264E0,1.211687000E1
4.328679150E-1,-9.154950142E0,3.931950092E0,5.572050095E0,1.141582611E1
4.348308090E-1,-8.809950829E0,4.584000111E0,4.231050014E0,1.079490967E1
4.367936820E-1,-8.503950119E0,5.311950207E0,2.812950134E0,1.041377314E1
4.387567940E-1,-8.082000732E0,5.772000313E0,2.200050116E0,1.017226346E1
4.407198360E-1,-7.507050514E0,6.001950264E0,2.200050116E0,9.859991628E0
4.426823890E-1,-6.970950127E0,6.499950409E0,1.165050030E0,9.602126981E0
4.446450790E-1,-6.241950512E0,6.424050331E0,3.979500234E-1,8.965976415E0
4.466084010E-1,-5.782950401E0,6.462000370E0,-2.520000041E-1,8.675452042E0
4.485715380E-1,-5.053950310E0,6.040050507E0,-4.440000355E-1,7.888077072E0
4.505341100E-1,-4.671000004E0,5.848950386E0,-1.287000060E0,7.595053048E0
4.524968480E-1,-4.671000004E0,5.964000225E0,-2.169000149E0,7.879854146E0
4.544597520E-1,-4.479000092E0,5.772000313E0,-2.704950094E0,7.790647242E0
4.564226100E-1,-4.288050175E0,5.235000134E0,-2.820000172E0,7.331098258E0
4.583853650E-1,-4.402950287E0,4.774950027E0,-3.357000113E0,7.311331531E0
4.603481510E-1,-4.363950253E0,4.276950359E0,-4.162050247E0,7.393174450E0
4.623107370E-1,-4.441050053E0,3.741000175E0,-4.698000431E0,7.469217893E0
4.642733810E-1,-4.747950077E0,3.319050074E0,-5.350050449E0,7.885566761E0
4.662361970E-1,-4.786050320E0,2.896950245E0,-5.695050240E0,7.983244680E0
4.681989760E-1,-4.824000359E0,2.322000027E0,-6.078000069E0,8.099675822E0
4.701617440E-1,-4.555950165E0,1.479000092E0,-6.538050175E0,8.104950540E0
4.721245160E-1,-4.057950020E0,5.980500579E-1,-6.730050087E0,7.881509780E0
4.740883200E-1,-3.865950108E0,-2.059500068E-1,-6.652950287E0,7.697384826E0
4.760518220E-1,-3.636000156E0,-8.190000653E-1,-7.381050587E0,8.268685869E0
4.780144510E-1,-3.598050117E0,-1.624050021E0,-7.687950134E0,8.642226587E0
4.799773470E-1,-3.367950201E0,-2.467050076E0,-7.687950134E0,8.748371386E0
4.819401400E-1,-3.022950172E0,-3.349050045E0,-8.301000595E0,9.447802646E0
4.839029630E-1,-2.946000099E0,-4.153950214E0,-9.412950516E0,1.070223605E1
4.858660820E-1,-2.371050119E0,-5.304000378E0,-1.052400017E1,1.202118456E1
4.878291150E-1,-1.720050097E0,-6.760050297E0,-1.178895092E1,1.369803694E1
4.897923010E-1,-8.770500422E-1,-8.446949959E0,-1.255605030E1,1.515831717E1
4.917554660E-1,4.260000288E-1,-1.066995049E1,-1.347495079E1,1.719312706E1
4.937191140E-1,2.533950090E0,-1.323795033E1,-1.381995106E1,1.930428137E1
4.956826200E-1,5.446050167E0,-1.595895100E1,-1.305405045E1,2.132500439E1
4.976455790E-1,8.665950775E0,-1.852695084E1,-1.075395012E1,2.310831135E1
4.996086990E-1,1.138695049E1,-2.029005051E1,-7.150950432E0,2.434101237E1
5.015705120E-1,1.307400036E1,-2.143995094E1,-2.437050104E0,2.522974822E1
5.035327040E-1,1.372500038E1,-2.209095192E1,2.161050081E0,2.609704829E1
5.054959320E-1,1.353405094E1,-2.224500084E1,6.492000103E0,2.683573481E1
5.074588560E-1,1.253700066E1,-2.212995148E1,1.005705070E1,2.735060158E1
5.094214650E-1,1.092705059E1,-2.143995094E1,1.273995018E1,2.722826219E1
5.113841660E-1,9.202950478E0,-2.021295166E1,1.465605068E1,2.660935050E1
5.133474450E-1,7.018050194E0,-1.867995071E1,1.584405041E1,2.547994350E1
5.153105520E-1,5.676000118E0,-1.703205109E1,1.699394989E1,2.472047885E1
5.172734450E-1,4.872000217E0,-1.549905109E1,1.841205025E1,2.455525535E1
5.192364000E-1,2.839950085E0,-1.392705059E1,1.894905090E1,2.368743517E1
5.211984620E-1,1.077000022E0,-1.254795074E1,1.814400101E1,2.208655178E1
5.231607850E-1,-2.250000089E-1,-1.174305058E1,1.580595112E1,1.969207842E1
5.251235960E-1,-1.260000110E0,-1.132095051E1,1.277805042E1,1.711812178E1
5.270862880E-1,-2.295000076E0,-1.139805031E1,9.405000687E0,1.495448475E1
5.290493860E-1,-3.483000278E0,-1.212600040E1,6.031950474E0,1.398411968E1
5.310123650E-1,-4.747950077E0,-1.350600052E1,2.928000212E0,1.461260638E1
5.329763600E-1,-6.204000473E0,-1.515405083E1,6.280500293E-1,1.638686441E1
5.349400580E-1,-7.392000198E0,-1.703205109E1,-8.269500136E-1,1.858537806E1
5.369030890E-1,-8.236050606E0,-2.052000046E1,-3.817050219E0,2.243820003E1
5.388663050E-1,-9.538950920E0,-2.646105194E1,-1.573695087E1,3.223089321E1
5.408293570E-1,-1.195305061E1,-3.151995087E1,-2.409195137E1,4.143434376E1
5.427924580E-1,-1.306500053E1,-3.424095154E1,-2.646795082E1,4.520718330E1
5.447544490E-1,-1.225995064E1,-3.546795273E1,-1.052400017E1,3.897482059E1
5.467167660E-1,-1.298805046E1,-3.623400116E1,3.924000263E0,3.869095596E1
5.486798020E-1,-1.444500065E1,-3.680895233E1,1.308495045E1,4.165060556E1
5.506426200E-1,-1.620795059E1,-3.765195084E1,1.431105042E1,4.341858160E1
5.526057420E-1,-1.777905083E1,-3.795900345E1,1.254795074E1,4.375421876E1
5.545687740E-1,-1.835400009E1,-3.738405228E1,1.170495033E1,4.326017275E1
5.565320390E-1,-1.827705002E1,-3.634905243E1,1.132200050E1,4.223140852E1
5.584952360E-1,-1.705095100E1,-3.489300156E1,1.051695061E1,4.023509336E1
5.604582480E-1,-1.494300079E1,-3.305295181E1,9.712050438E0,3.755149558E1
5.624213150E-1,-1.218300056E1,-3.082995224E1,9.520050049E0,3.448974936E1
5.643842580E-1,-9.117000580E0,-2.818500137E1,9.252000809E0,3.103407033E1
5.663472380E-1,-6.088950157E0,-2.496600151E1,8.409000397E0,2.703863593E1
5.683099710E-1,-3.598050117E0,-2.109495163E1,6.223950386E0,2.228633005E1
5.702727760E-1,-2.218050003E0,-1.741500092E1,2.928000212E0,1.779817934E1
5.722369490E-1,-1.183050036E0,-1.442595100E1,1.500000060E-2,1.447438754E1
5.742007110E-1,-3.780000210E-1,-1.201095104E1,-3.394950151E0,1.248725412E1
5.761635360E-1,1.189500093E-1,-1.005600071E1,-6.768000126E0,1.212200994E1
