"Time (s)","Acceleration x (m/s^2)","Acceleration y (m/s^2)","Acceleration z (m/s^2)","Absolute acceleration (m/s^2)"
2.698127600E-2,9.394050598E0,-6.110895157E1,1.289295101E1,6.315679167E1
2.894241000E-2,1.318905067E1,-6.294795227E1,8.869050026E0,6.492346110E1
3.090619900E-2,1.752000046E1,-6.459705353E1,2.085000038E0,6.696325086E1
3.286897300E-2,2.284695053E1,-6.632100677E1,-1.002600002E1,7.085887217E1
3.483204500E-2,2.917095184E1,-6.827595520E1,-2.148600197E1,7.729294127E1
3.679436200E-2,3.319605255E1,-6.842895508E1,-2.754195213E1,8.088917681E1
3.875689600E-2,3.522705078E1,-6.674295044E1,-3.053100204E1,8.141074024E1
4.071903000E-2,3.488205338E1,-6.287205124E1,-2.961105156E1,7.775903066E1
4.268128100E-2,3.131805229E1,-5.708400345E1,-2.386200142E1,6.934550426E1
4.464355200E-2,2.491695213E1,-5.060700226E1,-1.604295158E1,5.864554098E1
4.660581700E-2,1.851600075E1,-4.527900314E1,-8.875950813E0,4.971733010E1
4.856731100E-2,1.215405083E1,-4.083300018E1,-3.394950151E0,4.273851357E1
5.052900700E-2,7.285950184E0,-3.738405228E1,7.050000429E-1,3.809395569E1
5.249159900E-2,3.798000097E0,-3.443295288E1,3.196050167E0,3.478890319E1
5.445392800E-2,1.459950089E0,-3.201795197E1,4.729050159E0,3.239821936E1
5.641546700E-2,4.200000316E-2,-2.994795227E1,5.496000290E0,3.044811371E1
5.837723800E-2,-5.700000525E-1,-2.833905220E1,5.764050484E0,2.892492105E1
6.033982100E-2,-8.770500422E-1,-2.692005157E1,5.841000080E0,2.756040050E1
6.230216300E-2,-9.529500604E-1,-2.569395065E1,5.956050396E0,2.639245631E1
6.426482600E-2,-9.150000215E-1,-2.462100029E1,5.878950119E0,2.532968485E1
6.622739400E-2,-8.770500422E-1,-2.373900032E1,5.457000256E0,2.437392469E1
6.819019800E-2,-7.620000243E-1,-2.316405106E1,4.843950272E0,2.367736809E1
7.015293200E-2,-7.230000496E-1,-2.274300194E1,4.000950336E0,2.310355968E1
7.211576800E-2,-5.700000525E-1,-2.239800072E1,3.004050255E0,2.260574383E1
7.407856300E-2,-4.930500090E-1,-2.212995148E1,1.855050087E0,2.221303810E1
7.604200400E-2,-4.930500090E-1,-2.205300140E1,9.349500537E-1,2.207831744E1
7.800525500E-2,-6.850500107E-1,-2.190000153E1,1.500000060E-2,2.191071850E1
7.996762700E-2,-7.620000243E-1,-2.182305145E1,-4.440000355E-1,2.184086433E1
8.193025700E-2,-9.150000215E-1,-2.182305145E1,-7.890000343E-1,2.185647091E1
8.389269400E-2,-8.770500422E-1,-2.190000153E1,-1.018950105E0,2.194122929E1
8.585518400E-2,-7.999500632E-1,-2.205300140E1,-1.057050109E0,2.209280756E1
8.781741500E-2,-7.620000243E-1,-2.228295135E1,-8.659500480E-1,2.231278635E1
8.977972200E-2,-8.380500674E-1,-2.255100060E1,-5.590500236E-1,2.257349093E1
9.174243400E-2,-9.919500351E-1,-2.278095055E1,-1.759500057E-1,2.280321537E1
9.370502800E-2,-9.919500351E-1,-2.308800125E1,2.070000172E-1,2.311022751E1
9.566674200E-2,-1.144950032E0,-2.339400101E1,5.899500251E-1,2.342943095E1
9.762871700E-2,-1.183050036E0,-2.354805183E1,1.126049995E0,2.360462542E1
9.959144100E-2,-1.106999993E0,-2.362395096E1,1.471050024E0,2.369557967E1
1.015539460E-1,-1.106999993E0,-2.362395096E1,1.624950051E0,2.370563162E1
1.035164010E-1,-1.068000078E0,-2.350905037E1,2.085000038E0,2.362547986E1
1.054788710E-1,-1.030050039E0,-2.331795120E1,2.506050110E0,2.347484054E1
1.074413020E-1,-1.068000078E0,-2.308800125E1,2.812950134E0,2.328323677E1
1.094037650E-1,-1.068000078E0,-2.281905174E1,2.965950251E0,2.303576800E1
1.113663600E-1,-1.144950032E0,-2.255100060E1,3.118950129E0,2.279443766E1
1.133289170E-1,-1.336950064E0,-2.220600128E1,3.081000090E0,2.245855049E1
1.152917680E-1,-1.260000110E0,-2.193795013E1,3.043050051E0,2.218380964E1
1.172545330E-1,-1.183050036E0,-2.170800018E1,3.043050051E0,2.195215326E1
1.192171090E-1,-1.068000078E0,-2.143995094E1,3.004050255E0,2.167571080E1
1.211797510E-1,-9.919500351E-1,-2.113305092E1,3.081000090E0,2.137948474E1
1.231423620E-1,-9.529500604E-1,-2.086500168E1,3.004050255E0,2.110167592E1
1.251049820E-1,-8.380500674E-1,-2.052000046E1,2.889000177E0,2.073931216E1
1.270673710E-1,-8.380500674E-1,-2.029005051E1,2.736000061E0,2.049083146E1
1.290298280E-1,-7.230000496E-1,-1.979205132E1,2.620950222E0,1.997792293E1
1.309925340E-1,-4.549500346E-1,-1.944705009E1,2.506050110E0,1.961313397E1
1.329551530E-1,-3.400500119E-1,-1.902495003E1,2.353049994E0,1.917292888E1
1.349177240E-1,-1.480500102E-1,-1.856505013E1,2.275950193E0,1.870462387E1
1.368803090E-1,8.100000024E-2,-1.810500145E1,2.200050116E0,1.823836229E1
1.388426140E-1,1.570500135E-1,-1.764495087E1,2.238000154E0,1.778700651E1
1.408050010E-1,3.109500110E-1,-1.707000160E1,2.314950228E0,1.722906379E1
1.427677800E-1,4.639500082E-1,-1.657200050E1,2.314950228E0,1.673933824E1
1.447304510E-1,4.260000288E-1,-1.595895100E1,2.391000032E0,1.614269104E1
1.466941840E-1,6.550500393E-1,-1.542195034E1,2.583000183E0,1.565048027E1
1.486576050E-1,8.089500666E-1,-1.492395115E1,2.659050226E0,1.518055553E1
1.506200830E-1,1.000050068E0,-1.446405029E1,2.812950134E0,1.476893833E1
1.525828370E-1,1.192050099E0,-1.396605110E1,2.736000061E0,1.428136069E1
1.545455790E-1,1.306950092E0,-1.346700096E1,2.545050144E0,1.376755293E1
1.565083450E-1,1.306950092E0,-1.289295101E1,2.506050110E0,1.319911328E1
1.584708910E-1,1.345050097E0,-1.224105072E1,2.238000154E0,1.251643428E1
1.604335010E-1,1.384050012E0,-1.155105019E1,1.930950046E0,1.179283354E1
1.623961160E-1,1.537050128E0,-1.097595024E1,1.816050053E0,1.123085235E1
1.643587300E-1,1.614000082E0,-1.032495022E1,1.777950048E0,1.060050469E1
1.663211520E-1,1.651950121E0,-9.673050880E0,1.701000094E0,9.959430398E0
1.682836410E-1,1.575000048E0,-8.868000031E0,1.510050058E0,9.132486018E0
1.702462770E-1,1.459950089E0,-8.140049934E0,1.471050024E0,8.399753292E0
1.722088690E-1,1.306950092E0,-7.335000515E0,1.240950108E0,7.553165447E0
1.741716690E-1,1.269000053E0,-6.529950142E0,9.349500537E-1,6.717495188E0
1.761344080E-1,1.077000022E0,-5.725050449E0,3.220500052E-1,5.834367824E0
1.780977330E-1,8.470500112E-1,-4.959000111E0,-9.900000691E-2,5.031796580E0
1.800608790E-1,6.550500393E-1,-4.153950214E0,-5.209500194E-1,4.237426325E0
1.820228640E-1,5.410500169E-1,-3.463950157E0,-8.269500136E-1,3.602156595E0
1.839851890E-1,4.260000288E-1,-2.773950100E0,-1.096050024E0,3.012905713E0
1.859480340E-1,3.490500152E-1,-2.199000120E0,-1.249050021E0,2.552951899E0
1.879107260E-1,5.020500422E-1,-1.701000094E0,-1.479000092E0,2.309306571E0
1.898735200E-1,4.260000288E-1,-1.240950108E0,-1.516950130E0,2.005634785E0
1.918363080E-1,5.020500422E-1,-8.959500194E-1,-1.632000089E0,1.928264757E0
1.937995700E-1,7.320000529E-1,-6.280500293E-1,-1.479000092E0,1.765704445E0
1.957626930E-1,8.470500112E-1,-3.210000098E-1,-1.287000060E0,1.573818249E0
1.977252220E-1,9.240000248E-1,-1.680000126E-1,-1.096050024E0,1.443373031E0
1.996879250E-1,1.114950061E0,-5.295000225E-2,-8.269500136E-1,1.389159338E0
2.016497990E-1,1.114950061E0,9.900000691E-2,-6.360000372E-1,1.287404632E0
2.036119200E-1,1.269000053E0,3.289500177E-1,-3.670500219E-1,1.361357766E0
2.055746190E-1,1.345050097E0,4.830000103E-1,-9.900000691E-2,1.432567546E0
2.075371490E-1,1.498950124E0,5.980500579E-1,9.195000678E-2,1.616468419E0
2.094989240E-1,1.537050128E0,8.280000687E-1,2.449500114E-1,1.762982620E0
2.114609200E-1,1.690050125E0,9.430500269E-1,5.130000114E-1,2.002194244E0
2.134236220E-1,1.843950033E0,1.057950020E0,6.660000086E-1,2.227771528E0
2.153861300E-1,2.035050154E0,1.210950017E0,7.050000429E-1,2.470800302E0
2.173485400E-1,2.074050188E0,1.288050056E0,7.050000429E-1,2.541216675E0
2.193109780E-1,2.111999989E0,1.402950048E0,7.810500264E-1,2.653083477E0
2.212736230E-1,2.149950027E0,1.555950046E0,7.050000429E-1,2.745958981E0
2.232362070E-1,2.188950062E0,1.594050050E0,5.899500251E-1,2.771378532E0
2.251998900E-1,2.188950062E0,1.594050050E0,3.220500052E-1,2.726942269E0
2.271632650E-1,2.188950062E0,1.633050084E0,1.300500035E-1,2.734093626E0
2.291257510E-1,2.341950178E0,1.633050084E0,-9.900000691E-2,2.856813647E0
2.310884980E-1,2.380050182E0,1.671000123E0,-3.670500219E-1,2.931144145E0
2.330512700E-1,2.419050217E0,1.708950043E0,-6.739500165E-1,3.037519189E0
2.350140340E-1,2.419050217E0,1.824000120E0,-1.018950105E0,3.196410441E0
2.369771360E-1,2.457000017E0,1.786050081E0,-1.287000060E0,3.298968495E0
2.389401590E-1,2.419050217E0,1.863000035E0,-1.516950130E0,3.409356359E0
2.409029310E-1,2.457000017E0,1.978050113E0,-1.747050047E0,3.605789123E0
2.428657770E-1,2.380050182E0,2.016000032E0,-1.977000117E0,3.692888363E0
2.448283520E-1,2.341950178E0,2.016000032E0,-2.130000114E0,3.753117005E0
2.467910070E-1,2.341950178E0,2.092950106E0,-2.245050192E0,3.860753961E0
2.487534490E-1,2.304000139E0,2.131050110E0,-2.398950100E0,3.950285154E0
2.507159440E-1,2.304000139E0,2.169000149E0,-2.590050220E0,4.089173319E0
2.526787140E-1,2.265000105E0,2.131050110E0,-2.667000055E0,4.096887763E0
2.546414040E-1,2.304000139E0,2.169000149E0,-2.704950094E0,4.162899626E0
2.566041870E-1,2.227050066E0,2.208000183E0,-2.743950129E0,4.167046810E0
2.585669420E-1,2.188950062E0,2.169000149E0,-2.820000172E0,4.177135979E0
2.605295250E-1,2.188950062E0,2.131050110E0,-2.743950129E0,4.106353523E0
2.624921650E-1,2.227050066E0,2.092950106E0,-2.667000055E0,4.056239815E0
2.644547760E-1,2.227050066E0,2.016000032E0,-2.514000177E0,3.917167985E0
2.664173960E-1,2.341950178E0,1.978050113E0,-2.322000027E0,3.845659503E0
2.683798750E-1,2.304000139E0,1.939050078E0,-2.130000114E0,3.688527123E0
2.703423960E-1,2.419050217E0,1.900950074E0,-1.900950074E0,3.616493650E0
2.723051580E-1,2.572050095E0,1.863000035E0,-1.516950130E0,3.519566524E0
2.742678520E-1,2.572050095E0,1.747950077E0,-1.096050024E0,3.297286281E0
2.762306340E-1,2.725050211E0,1.633050084E0,-6.739500165E-1,3.247608328E0
2.781933900E-1,2.802000046E0,1.518000126E0,-1.759500057E-1,3.191627648E0
2.801551260E-1,2.955000162E0,1.363950014E0,2.449500114E-1,3.263799336E0
2.821171610E-1,2.992950201E0,1.249050021E0,6.660000086E-1,3.310805472E0
2.840800640E-1,3.108000040E0,1.096050024E0,1.126049995E0,3.482668301E0
2.860427070E-1,3.184950113E0,9.810000658E-1,1.510050058E0,3.658759289E0
2.880052740E-1,3.262050152E0,8.280000687E-1,1.930950046E0,3.880093219E0
2.899678630E-1,3.262050152E0,7.129500508E-1,2.391000032E0,4.106841867E0
2.919306620E-1,3.337950230E0,5.209500194E-1,2.812950134E0,4.396133428E0
2.938933990E-1,3.415050268E0,3.679500222E-1,3.196050167E0,4.691768560E0
2.958561840E-1,3.453000069E0,2.140500098E-1,3.579000235E0,4.977777572E0
2.978189480E-1,3.492000103E0,6.105000153E-2,4.000950336E0,5.310875203E0
2.997824390E-1,3.492000103E0,-9.105000645E-2,4.269000053E0,5.516041722E0
3.017457170E-1,3.453000069E0,-1.680000126E-1,4.498950005E0,5.673798077E0
3.037080850E-1,3.262050152E0,-2.059500068E-1,4.653000355E0,5.686281641E0
3.056707190E-1,3.108000040E0,-3.210000098E-1,4.729050159E0,5.668034992E0
3.076336250E-1,2.878050089E0,-3.589500189E-1,4.614000320E0,5.449863887E0
3.095964660E-1,2.686950207E0,-4.360500276E-1,4.461000443E0,5.225932069E0
3.115590440E-1,2.533950090E0,-4.360500276E-1,4.269000053E0,4.983513233E0
3.135216990E-1,2.457000017E0,-5.509500504E-1,4.039050102E0,4.759655531E0
3.154841270E-1,2.419050217E0,-6.280500293E-1,3.847950220E0,4.588351740E0
3.174466220E-1,2.265000105E0,-6.660000086E-1,3.579000235E0,4.287542905E0
3.194090400E-1,2.149950027E0,-7.810500264E-1,3.388050079E0,4.087934393E0
3.213715070E-1,2.074050188E0,-8.580000401E-1,3.157950163E0,3.874338328E0
3.233341470E-1,1.920000076E0,-8.580000401E-1,2.965950251E0,3.635852754E0
3.252967360E-1,1.767000079E0,-8.959500194E-1,2.659050226E0,3.315955944E0
3.272591770E-1,1.651950121E0,-8.580000401E-1,2.430000067E0,3.061046160E0
3.292216610E-1,1.614000082E0,-7.810500264E-1,2.200050116E0,2.838178275E0
3.311842930E-1,1.498950124E0,-7.429500222E-1,1.930950046E0,2.554876570E0
3.331468850E-1,1.422000051E0,-7.429500222E-1,1.663050056E0,2.310799508E0
3.351095040E-1,1.306950092E0,-7.039500475E-1,1.471050024E0,2.089892913E0
3.370721150E-1,1.306950092E0,-6.280500293E-1,1.279950023E0,1.934124464E0
3.390345970E-1,1.230000019E0,-5.509500504E-1,1.087950110E0,1.732074319E0
3.409971170E-1,1.153950095E0,-5.130000114E-1,8.580000401E-1,1.526739632E0
3.429599140E-1,1.077000022E0,-4.360500276E-1,5.899500251E-1,1.303115385E0
3.449226400E-1,1.000050068E0,-3.979500234E-1,3.600000143E-1,1.134929236E0
3.468860920E-1,8.850000501E-1,-2.830500007E-1,2.449500114E-1,9.609073314E-1
3.488493320E-1,8.089500666E-1,-2.059500068E-1,5.295000225E-2,8.364324947E-1
3.508120220E-1,7.320000529E-1,-1.680000126E-1,-9.900000691E-2,7.575282721E-1
3.527748730E-1,6.550500393E-1,-1.290000081E-1,-2.520000041E-1,7.136074258E-1
3.547370820E-1,5.790000558E-1,-1.680000126E-1,-2.910000086E-1,6.694371321E-1
3.566994830E-1,5.790000558E-1,-1.290000081E-1,-4.440000355E-1,7.409575550E-1
3.586627200E-1,5.410500169E-1,-1.290000081E-1,-5.209500194E-1,7.620794221E-1
3.606257120E-1,5.410500169E-1,-1.290000081E-1,-5.590500236E-1,7.886146408E-1
3.625879030E-1,4.639500082E-1,-9.105000645E-2,-5.590500236E-1,7.321725497E-1
3.645503290E-1,3.870000243E-1,-1.290000081E-1,-5.209500194E-1,6.616637693E-1
3.665127660E-1,3.870000243E-1,-1.290000081E-1,-5.590500236E-1,6.920599322E-1
3.684752200E-1,3.870000243E-1,-9.105000645E-2,-5.590500236E-1,6.860000374E-1
3.704379990E-1,3.490500152E-1,-9.105000645E-2,-5.590500236E-1,6.653292009E-1
3.724006820E-1,3.490500152E-1,-9.105000645E-2,-4.819500148E-1,6.019982007E-1
3.743634660E-1,3.109500110E-1,-1.290000081E-1,-4.440000355E-1,5.571956057E-1
3.763262200E-1,3.490500152E-1,-9.105000645E-2,-4.060500264E-1,5.431414556E-1
3.782884580E-1,3.109500110E-1,-9.105000645E-2,-3.670500219E-1,4.895975200E-1
3.802508430E-1,2.719500065E-1,-9.105000645E-2,-3.670500219E-1,4.658032077E-1
3.822135410E-1,2.719500065E-1,-1.290000081E-1,-2.910000086E-1,4.186631260E-1
3.841761480E-1,2.340000123E-1,-1.290000081E-1,-2.520000041E-1,3.672887282E-1
3.861385860E-1,2.719500065E-1,-1.680000126E-1,-2.140500098E-1,3.847053639E-1
3.881010730E-1,1.960500032E-1,-1.680000126E-1,-1.759500057E-1,3.124388140E-1
3.900634920E-1,1.960500032E-1,-1.680000126E-1,-2.140500098E-1,3.353759304E-1
3.920259580E-1,1.570500135E-1,-1.680000126E-1,-2.140500098E-1,3.141752977E-1
3.939887780E-1,1.960500032E-1,-2.440500110E-1,-2.520000041E-1,4.018706430E-1
3.959514940E-1,1.960500032E-1,-2.830500007E-1,-3.289500177E-1,4.761943099E-1
3.979142280E-1,1.570500135E-1,-3.210000098E-1,-3.289500177E-1,4.857096120E-1
3.998769560E-1,1.570500135E-1,-3.210000098E-1,-4.060500264E-1,5.409088065E-1
4.018396170E-1,1.570500135E-1,-4.360500276E-1,-5.209500194E-1,6.972755954E-1
4.038022840E-1,1.189500093E-1,-4.740000367E-1,-6.739500165E-1,8.324864949E-1
4.057652500E-1,1.570500135E-1,-5.509500504E-1,-7.120500207E-1,9.139069409E-1
4.077281280E-1,1.960500032E-1,-6.280500293E-1,-8.269500136E-1,1.056753882E0
4.096907000E-1,2.719500065E-1,-7.039500475E-1,-9.810000658E-1,1.237684776E0
4.116533610E-1,2.340000123E-1,-8.580000401E-1,-1.134000063E0,1.441137126E0
4.136163380E-1,3.109500110E-1,-8.959500194E-1,-1.287000060E0,1.598682427E0
4.155792150E-1,3.870000243E-1,-9.340500236E-1,-1.516950130E0,1.823007450E0
4.175421010E-1,4.260000288E-1,-1.011000037E0,-1.594050050E0,1.935095001E0
4.195049850E-1,5.410500169E-1,-1.048950076E0,-1.708950043E0,2.076906746E0
4.214684550E-1,6.550500393E-1,-1.126049995E0,-1.747050047E0,2.179280389E0
4.234317540E-1,7.699500322E-1,-1.048950076E0,-1.786050081E0,2.209772433E0
4.253940830E-1,8.470500112E-1,-1.011000037E0,-1.708950043E0,2.158732277E0
4.273566890E-1,8.850000501E-1,-9.730500579E-1,-1.671000123E0,2.126568342E0
4.293187650E-1,8.470500112E-1,-8.959500194E-1,-1.671000123E0,2.076646713E0
4.312809970E-1,9.619500637E-1,-8.959500194E-1,-1.594050050E0,2.066172772E0
4.332435420E-1,8.470500112E-1,-7.039500475E-1,-1.516950130E0,1.874613851E0
4.352059950E-1,8.850000501E-1,-6.280500293E-1,-1.402050018E0,1.772968184E0
4.371686180E-1,7.699500322E-1,-5.130000114E-1,-1.171950102E0,1.493137336E0
4.391312050E-1,6.940500140E-1,-3.979500234E-1,-8.269500136E-1,1.150615474E0
4.410928800E-1,5.410500169E-1,-2.830500007E-1,-3.670500219E-1,7.124451854E-1
4.430548230E-1,3.870000243E-1,-2.440500110E-1,1.680000126E-1,4.873945332E-1
4.450168320E-1,3.109500110E-1,-1.680000126E-1,7.429500222E-1,8.227324286E-1
4.469788210E-1,1.189500093E-1,-1.290000081E-1,1.356000066E0,1.367306215E0
4.489411980E-1,4.200000316E-2,-5.295000225E-2,1.624950051E0,1.626354934E0
4.509034510E-1,-3.299999982E-2,-1.500000060E-2,2.046000004E0,2.046321093E0
4.528657690E-1,-7.200000435E-2,9.900000691E-2,2.545050144E0,2.547992394E0
4.548280670E-1,-1.480500102E-1,9.900000691E-2,2.928000212E0,2.933411844E0
4.567906020E-1,-1.099500060E-1,2.140500098E-1,3.196050167E0,3.205096423E0
4.587530670E-1,-1.480500102E-1,2.910000086E-1,3.463950157E0,3.479303163E0
4.607157080E-1,-1.480500102E-1,3.289500177E-1,3.694050074E0,3.711621326E0
4.626782970E-1,-1.480500102E-1,4.060500264E-1,3.771000147E0,3.795686702E0
4.646414580E-1,-1.480500102E-1,4.830000103E-1,3.886050224E0,3.918749056E0
4.666044510E-1,-3.299999982E-2,5.590500236E-1,3.924000263E0,3.963761344E0
4.685673190E-1,4.200000316E-2,5.590500236E-1,3.847950220E0,3.888575809E0
4.705302230E-1,1.570500135E-1,5.980500579E-1,3.733050108E0,3.783912220E0
4.724928070E-1,1.960500032E-1,5.590500236E-1,3.579000235E0,3.627701092E0
4.744554720E-1,3.490500152E-1,6.360000372E-1,3.388050079E0,3.464854297E0
4.764186190E-1,5.020500422E-1,6.739500165E-1,3.157950163E0,3.267860478E0
4.783816240E-1,6.940500140E-1,5.980500579E-1,3.118950129E0,3.250725949E0
4.803442190E-1,7.320000529E-1,6.360000372E-1,3.043050051E0,3.193818050E0
4.823069340E-1,7.320000529E-1,5.590500236E-1,3.081000090E0,3.215730486E0
4.842693520E-1,7.320000529E-1,5.590500236E-1,3.043050051E0,3.179389032E0
4.862318570E-1,5.790000558E-1,4.830000103E-1,2.889000177E0,2.985774958E0
4.881937700E-1,5.020500422E-1,3.679500222E-1,2.620950222E0,2.693848832E0
4.901558570E-1,5.410500169E-1,1.759500057E-1,2.275950193E0,2.345984401E0
4.921200040E-1,6.940500140E-1,-9.105000645E-2,1.893000126E0,2.018277732E0
4.940835470E-1,1.000050068E0,-2.830500007E-1,1.548000097E0,1.864543307E0
4.960462090E-1,1.192050099E0,-6.280500293E-1,1.356000066E0,1.911587418E0
4.980091120E-1,1.345050097E0,-1.011000037E0,9.730500579E-1,1.943735386E0
4.999723980E-1,1.614000082E0,-1.318050027E0,2.449500114E-1,2.098154581E0
5.019355710E-1,1.996950150E0,-1.624050021E0,-3.670500219E-1,2.600014248E0
5.038980470E-1,2.304000139E0,-1.930950046E0,-1.134000063E0,3.212933374E0
5.058607270E-1,2.686950207E0,-2.275950193E0,-2.245050192E0,4.176110758E0
5.078235540E-1,3.031950235E0,-2.697000027E0,-3.931950092E0,5.650377235E0
5.097863070E-1,3.337950230E0,-3.310950041E0,-5.809950352E0,7.473943069E0
5.117491240E-1,3.645000219E0,-3.924000263E0,-8.032950401E0,9.654641206E0
5.137119220E-1,3.837000132E0,-4.729050159E0,-1.033305073E1,1.199409950E1
5.156746430E-1,4.027950287E0,-5.494950294E0,-1.178895092E1,1.361610172E1
5.176373860E-1,4.027950287E0,-6.031950474E0,-1.155900097E1,1.364621975E1
5.196000050E-1,3.798000097E0,-6.607050419E0,-9.681000710E0,1.232070188E1
5.215626740E-1,3.529950142E0,-7.872000217E0,-7.458000183E0,1.140397747E1
5.235252350E-1,2.494950056E0,-9.826050758E0,-5.772000313E0,1.166584917E1
5.254878280E-1,7.699500322E-1,-1.243305016E1,-4.315050125E0,1.318306553E1
5.274497710E-1,-7.620000243E-1,-1.500105095E1,-2.398950100E0,1.521075722E1
5.294119050E-1,-2.563050032E0,-1.741500092E1,-9.810000658E-1,1.762991331E1
5.313738510E-1,-4.288050175E0,-2.017500114E1,2.449500114E-1,2.062711919E1
5.333358420E-1,-6.241950512E0,-2.381595039E1,1.701000094E0,2.467903646E1
5.352986090E-1,-8.005949974E0,-2.806995201E1,3.694050074E0,2.942215911E1
5.372611480E-1,-9.615000725E0,-3.228600311E1,5.188950062E0,3.408459239E1
5.392232370E-1,-1.091805077E1,-3.611894989E1,5.917050362E0,3.819416001E1
5.411854580E-1,-1.149300098E1,-3.968400192E1,6.568950176E0,4.183372069E1
5.431479600E-1,-1.122495079E1,-4.271100235E1,7.603950500E0,4.481126315E1
5.451103790E-1,-1.057395077E1,-4.527900314E1,8.983950615E0,4.735723735E1
5.470730280E-1,-9.654000282E0,-4.727205276E1,9.903000832E0,4.925358992E1
5.490356090E-1,-8.350950241E0,-4.903605270E1,1.005705070E1,5.074856750E1
5.509978260E-1,-6.894000530E0,-5.072205353E1,9.597000122E0,5.208028772E1
5.529601500E-1,-4.978050232E0,-5.202495193E1,8.254950523E0,5.291049817E1
